  -8.8760400e-01
  -9.1384900e-01
  -8.8623000e-01
  -8.8012700e-01
  -9.3063400e-01
  -9.0652500e-01
  -9.0255700e-01
  -9.1751100e-01
  -9.4772300e-01
  -9.7518900e-01
  -9.3811000e-01
  -9.4604500e-01
  -9.5199600e-01
  -9.3689000e-01
  -9.5977800e-01
  -9.3536400e-01
  -8.7814300e-01
  -8.7036100e-01
  -9.0789800e-01
  -9.0362500e-01
  -8.8394200e-01
  -9.3689000e-01
  -9.1461200e-01
  -9.1461200e-01
  -8.9279200e-01
  -9.3154900e-01
  -9.0393100e-01
  -8.8623000e-01
  -8.7753300e-01
  -9.0683000e-01
  -9.0255700e-01
  -9.2529300e-01
  -9.1400100e-01
  -8.7570200e-01
  -9.1583300e-01
  -9.2117300e-01
  -8.7844800e-01
  -8.5037200e-01
  -8.5067700e-01
  -8.0734300e-01
  -8.6792000e-01
  -8.1832900e-01
  -8.4350600e-01
  -8.4045400e-01
  -8.6181600e-01
  -8.7066700e-01
  -8.8729900e-01
  -9.1323900e-01
  -8.8714600e-01
  -8.6013800e-01
  -8.8790900e-01
  -9.0423600e-01
  -8.8058500e-01
  -8.4701500e-01
  -8.9752200e-01
  -8.8363600e-01
  -8.6196900e-01
  -8.6013800e-01
  -8.3297700e-01
  -8.7402300e-01
  -8.5189800e-01
  -8.8668800e-01
  -9.4360400e-01
  -9.0637200e-01
  -9.2422500e-01
  -9.6221900e-01
  -9.3292200e-01
  -9.1247600e-01
  -9.1430700e-01
  -9.0667700e-01
  -9.1827400e-01
  -9.1674800e-01
  -9.2224100e-01
  -8.8928200e-01
  -9.0316800e-01
  -9.0469400e-01
  -8.5647600e-01
  -8.7585400e-01
  -8.5067700e-01
  -8.6135900e-01
  -8.6990400e-01
  -8.7570200e-01
  -9.1278100e-01
  -8.6135900e-01
  -8.6044300e-01
  -8.7081900e-01
  -8.8836700e-01
  -8.5815400e-01
  -9.0744000e-01
  -8.3068800e-01
  -8.2168600e-01
  -8.4167500e-01
  -8.2199100e-01
  -8.8333100e-01
  -8.8363600e-01
  -8.8806200e-01
  -8.9172400e-01
  -8.7539700e-01
  -8.8928200e-01
  -8.7051400e-01
  -8.9401200e-01
  -9.1781600e-01
  -9.2239400e-01
  -9.1949500e-01
  -8.9279200e-01
  -8.7020900e-01
  -8.7432900e-01
  -8.5174600e-01
  -8.8470500e-01
  -8.8180500e-01
  -8.4884600e-01
  -8.5815400e-01
  -8.8104200e-01
  -8.8272100e-01
  -8.5708600e-01
  -8.1298800e-01
  -7.9895000e-01
  -8.2809400e-01
  -8.6334200e-01
  -8.8836700e-01
  -8.6731000e-01
  -9.2102100e-01
  -8.5556000e-01
  -8.6105300e-01
  -8.9126600e-01
  -9.1400100e-01
  -8.7753300e-01
  -8.8226300e-01
  -8.6929300e-01
  -8.6593600e-01
  -8.7631200e-01
  -8.9721700e-01
  -8.7417600e-01
  -8.2244900e-01
  -8.3770800e-01
  -8.5037200e-01
  -8.5113500e-01
  -8.9004500e-01
  -9.0621900e-01
  -9.1705300e-01
  -8.7463400e-01
  -8.4747300e-01
  -9.2086800e-01
  -8.9981100e-01
  -8.7783800e-01
  -8.5937500e-01
  -8.6273200e-01
  -8.6944600e-01
  -9.0179400e-01
  -8.4472700e-01
  -8.5037200e-01
  -8.3068800e-01
  -8.5403400e-01
  -8.2122800e-01
  -8.2138100e-01
  -7.7087400e-01
  -8.0184900e-01
  -7.7270500e-01
  -7.4157700e-01
  -7.8262300e-01
  -7.7499400e-01
  -7.5897200e-01
  -7.1838400e-01
  -7.1121200e-01
  -7.0571900e-01
  -6.8832400e-01
  -6.9290200e-01
  -6.2896700e-01
  -6.4956700e-01
  -7.1060200e-01
  -6.8252600e-01
  -6.3476600e-01
  -6.1065700e-01
  -6.0531600e-01
  -5.9494000e-01
  -5.9005700e-01
  -6.0165400e-01
  -5.6274400e-01
  -5.6411700e-01
  -5.3695700e-01
  -5.3451500e-01
  -5.5770900e-01
  -5.3878800e-01
  -5.4229700e-01
  -5.4046600e-01
  -5.6945800e-01
  -5.5908200e-01
  -5.5969200e-01
  -5.0827000e-01
  -5.0811800e-01
  -5.3619400e-01
  -5.1330600e-01
  -5.2566500e-01
  -4.8645000e-01
  -4.9209600e-01
  -5.6381200e-01
  -5.7037400e-01
  -6.2332200e-01
  -6.1660800e-01
  -6.1920200e-01
  -6.5063500e-01
  -6.0882600e-01
  -5.7754500e-01
  -5.9402500e-01
  -5.5419900e-01
  -5.9036300e-01
  -5.6778000e-01
  -5.7724000e-01
  -6.0974100e-01
  -6.0073900e-01
  -5.8090200e-01
  -5.3970300e-01
  -5.5862400e-01
  -6.2591600e-01
  -6.0897800e-01
  -6.3537600e-01
  -5.7144200e-01
  -6.1065700e-01
  -6.3095100e-01
  -6.4025900e-01
  -6.6162100e-01
  -7.0251500e-01
  -6.8176300e-01
  -7.1624800e-01
  -7.3822000e-01
  -7.0205700e-01
  -7.4661300e-01
  -7.3852500e-01
  -8.0688500e-01
  -8.0932600e-01
  -7.9437300e-01
  -8.3831800e-01
  -8.3694500e-01
  -9.2056300e-01
  -9.4467200e-01
  -9.4284100e-01
  -9.4055200e-01
  -9.8083500e-01
  -9.6801800e-01
  -1.0064700e+00
  -9.7045900e-01
  -9.7854600e-01
  -9.4619800e-01
  -9.5703100e-01
  -9.8632800e-01
  -1.0081480e+00
  -1.0542300e+00
  -1.0195920e+00
  -1.0459900e+00
  -1.0290530e+00
  -1.0166930e+00
  -1.0221860e+00
  -1.0328670e+00
  -9.9792500e-01
  -1.0739140e+00
  -1.0554500e+00
  -1.0780330e+00
  -1.0351560e+00
  -9.9670400e-01
  -1.0112000e+00
  -9.8556500e-01
  -1.0215760e+00
  -1.0055540e+00
  -1.0023500e+00
  -1.0549930e+00
  -1.0900880e+00
  -1.0609440e+00
  -1.0438540e+00
  -1.0591130e+00
  -1.0551450e+00
  -1.0580440e+00
  -1.0205080e+00
  -1.0343930e+00
  -1.0591130e+00
  -1.0443120e+00
  -1.0751340e+00
  -1.0922240e+00
  -1.0539250e+00
  -1.0426330e+00
  -1.0281370e+00
  -1.0476680e+00
  -1.0418700e+00
  -9.7412100e-01
  -1.0034180e+00
  -1.0061650e+00
  -1.0673520e+00
  -1.0551450e+00
  -1.0211180e+00
  -1.0298160e+00
  -1.0203550e+00
  -1.0360720e+00
  -1.0162350e+00
  -1.0404970e+00
  -1.0472110e+00
  -1.0218810e+00
  -9.3307500e-01
  -8.5189800e-01
  -9.0438800e-01
  -8.8485700e-01
  -8.5708600e-01
  -8.3175700e-01
  -7.7758800e-01
  -7.2662400e-01
  -6.1187700e-01
  -5.7205200e-01
  -5.3024300e-01
  -5.3817700e-01
  -4.9728400e-01
  -4.2663600e-01
  -3.7292500e-01
  -3.3187900e-01
  -2.4307300e-01
  -7.1259000e-02
  -2.1362000e-02
   1.1657700e-01
   2.7542100e-01
   4.2495700e-01
   6.0272200e-01
   8.1085200e-01
   1.0812380e+00
   1.3096620e+00
   1.5869140e+00
   1.7915340e+00
   1.9735720e+00
   2.1479800e+00
   2.3364260e+00
   2.5405880e+00
   2.6446530e+00
   2.6536560e+00
   2.6437380e+00
   2.6480100e+00
   2.3120120e+00
   1.7765810e+00
   1.3920590e+00
   9.1888400e-01
   5.8456400e-01
   3.0838000e-01
   7.4615000e-02
  -1.4633200e-01
  -3.1936600e-01
  -4.4723500e-01
  -4.6600300e-01
  -4.2984000e-01
  -4.4433600e-01
  -4.5562700e-01
  -4.8934900e-01
  -5.5587800e-01
  -6.5597500e-01
  -7.4432400e-01
  -8.2489000e-01
  -9.0835600e-01
  -9.3841600e-01
  -1.0261540e+00
  -1.1332700e+00
  -1.2146000e+00
  -1.2336730e+00
  -1.1967470e+00
  -1.2434390e+00
  -1.2883000e+00
  -1.2773130e+00
  -1.2348940e+00
  -1.1689760e+00
  -1.1689760e+00
  -1.1184690e+00
  -1.1463930e+00
  -1.1582950e+00
  -1.1395260e+00
  -1.0212710e+00
  -9.8587000e-01
  -9.9990800e-01
  -9.2681900e-01
  -9.7259500e-01
  -8.9309700e-01
  -9.2819200e-01
  -9.3078600e-01
  -9.2514000e-01
  -9.1140700e-01
  -9.1262800e-01
  -9.4284100e-01
  -9.4421400e-01
  -9.2300400e-01
  -8.8409400e-01
  -9.2636100e-01
  -9.8449700e-01
  -9.5199600e-01
  -9.2392000e-01
  -9.2971800e-01
  -9.3612700e-01
  -9.5443700e-01
  -9.5687900e-01
  -9.9029500e-01
  -9.7137500e-01
  -9.6221900e-01
  -9.6832300e-01
  -9.6649200e-01
  -9.1537500e-01
  -9.3200700e-01
  -9.5687900e-01
  -9.5901500e-01
  -9.0957600e-01
  -8.8577300e-01
  -8.7371800e-01
  -8.9889500e-01
  -9.1354400e-01
  -9.1888400e-01
  -9.5016500e-01
  -9.0393100e-01
  -8.8989300e-01
  -9.0332000e-01
  -8.8409400e-01
  -8.7631200e-01
  -8.8989300e-01
  -8.9736900e-01
  -9.1491700e-01
  -8.9721700e-01
  -9.3444800e-01
  -8.7081900e-01
  -8.1802400e-01
  -8.0474900e-01
  -8.2351700e-01
  -7.9696700e-01
  -8.1375100e-01
  -8.4793100e-01
  -8.4579500e-01
  -8.5083000e-01
  -8.5220300e-01
  -8.6654700e-01
  -8.2778900e-01
  -8.3938600e-01
  -8.4365800e-01
  -8.8562000e-01
  -8.9187600e-01
  -8.7616000e-01
  -8.6486800e-01
  -8.6471600e-01
  -8.7554900e-01
  -8.7875400e-01
  -8.5968000e-01
  -8.7692300e-01
  -8.3419800e-01
  -7.9437300e-01
  -8.1619300e-01
  -8.1207300e-01
  -7.6858500e-01
  -7.9208400e-01
  -8.2595800e-01
  -7.9879800e-01
  -7.7102700e-01
  -7.8292800e-01
  -7.9528800e-01
  -8.1466700e-01
  -8.2061800e-01
  -8.2138100e-01
  -8.2824700e-01
  -8.3923300e-01
  -7.9559300e-01
  -7.8079200e-01
  -7.6904300e-01
  -7.7850300e-01
  -7.2769200e-01
  -7.8933700e-01
  -7.9711900e-01
  -7.5210600e-01
  -7.4920700e-01
  -7.9376200e-01
  -7.8399700e-01
  -8.2168600e-01
  -7.9162600e-01
  -7.9071000e-01
  -7.8079200e-01
  -7.9177900e-01
  -8.0001800e-01
  -7.7987700e-01
  -7.5271600e-01
  -8.0215500e-01
  -7.6477100e-01
  -7.6019300e-01
  -7.6095600e-01
  -7.6538100e-01
  -7.7453600e-01
  -8.2077000e-01
  -8.2687400e-01
  -7.7957200e-01
  -7.4417100e-01
  -7.5607300e-01
  -7.4279800e-01
  -7.0724500e-01
  -6.8924000e-01
  -7.0098900e-01
  -7.4310300e-01
  -7.2509800e-01
  -6.8344100e-01
  -7.1350100e-01
  -7.1975700e-01
  -6.7306500e-01
  -6.7565900e-01
  -7.0541400e-01
  -7.3288000e-01
  -7.5073200e-01
  -7.0312500e-01
  -6.9335900e-01
  -6.9488500e-01
  -7.3394800e-01
  -7.3226900e-01
  -6.9473300e-01
  -6.5246600e-01
  -6.2301600e-01
  -6.1416600e-01
  -6.4117400e-01
  -6.2042200e-01
  -6.2027000e-01
  -6.1294600e-01
  -6.1142000e-01
  -5.9921300e-01
  -6.0836800e-01
  -5.7663000e-01
  -5.3710900e-01
  -5.7006800e-01
  -5.2673300e-01
  -5.4061900e-01
  -4.9026500e-01
  -4.6417200e-01
  -4.5669600e-01
  -4.2861900e-01
  -4.5639000e-01
  -4.6737700e-01
  -4.1885400e-01
  -4.0298500e-01
  -4.0878300e-01
  -4.2175300e-01
  -4.2083700e-01
  -4.0313700e-01
  -3.6239600e-01
  -3.6377000e-01
  -3.3554100e-01
  -3.0426000e-01
  -2.8381300e-01
  -3.4362800e-01
  -3.0532800e-01
  -3.1097400e-01
  -2.3895300e-01
  -2.4612400e-01
  -2.7816800e-01
  -2.4520900e-01
  -2.2125200e-01
  -2.2872900e-01
  -2.0721400e-01
  -1.7150900e-01
  -2.4581900e-01
  -2.4719200e-01
  -2.2857700e-01
  -2.3391700e-01
  -2.7114900e-01
  -2.6687600e-01
  -2.2201500e-01
  -1.9928000e-01
  -2.0996100e-01
  -1.7105100e-01
  -1.6265900e-01
  -1.1810300e-01
  -1.6098000e-01
  -1.4236500e-01
  -1.1230500e-01
  -7.7209000e-02
  -6.2714000e-02
  -1.9836000e-02
  -6.0120000e-02
  -6.8817000e-02
  -7.7362000e-02
  -7.5989000e-02
  -6.4240000e-02
  -3.4027000e-02
  -2.5024000e-02
  -5.5695000e-02
  -8.8806000e-02
  -5.1575000e-02
  -3.4027000e-02
  -2.9755000e-02
  -2.3346000e-02
  -4.1656000e-02
  -5.2338000e-02
  -8.1329000e-02
  -1.0330200e-01
  -1.2069700e-01
  -1.3778700e-01
  -1.9439700e-01
  -1.8676800e-01
  -1.6357400e-01
  -1.8981900e-01
  -1.7883300e-01
  -1.9012500e-01
  -1.9012500e-01
  -1.8234300e-01
  -2.2399900e-01
  -2.7648900e-01
  -2.7725200e-01
  -3.0319200e-01
  -3.2562300e-01
  -3.5873400e-01
  -3.9367700e-01
  -4.0206900e-01
  -4.2724600e-01
  -4.6157800e-01
  -4.8355100e-01
  -5.1498400e-01
  -5.3360000e-01
  -5.5038500e-01
  -5.3161600e-01
  -5.6106600e-01
  -6.0653700e-01
  -6.3903800e-01
  -6.8237300e-01
  -6.5887500e-01
  -6.8450900e-01
  -6.7428600e-01
  -6.5734900e-01
  -7.2265600e-01
  -7.4340800e-01
  -7.2372400e-01
  -7.5759900e-01
  -7.3883100e-01
  -7.3379500e-01
  -7.4722300e-01
  -7.8414900e-01
  -8.2641600e-01
  -8.6624100e-01
  -8.4472700e-01
  -8.7310800e-01
  -9.0026900e-01
  -9.3368500e-01
  -9.3277000e-01
  -9.1384900e-01
  -9.4909700e-01
  -9.6145600e-01
  -9.6099900e-01
  -9.6527100e-01
  -9.7442600e-01
  -9.6008300e-01
  -9.6588100e-01
  -9.8129300e-01
  -9.6450800e-01
  -9.6771200e-01
  -9.5871000e-01
  -9.3048100e-01
  -9.6252400e-01
  -9.6237200e-01
  -9.5169100e-01
  -9.7641000e-01
  -1.0150150e+00
  -1.0119630e+00
  -1.0443120e+00
  -1.0198970e+00
  -1.0250850e+00
  -1.0145570e+00
  -1.0299680e+00
  -1.0363770e+00
  -1.0317990e+00
  -1.0240170e+00
  -1.0614010e+00
  -1.0444640e+00
  -1.0585020e+00
  -1.0768130e+00
  -1.0887150e+00
  -1.1212160e+00
  -1.0736080e+00
  -1.0746770e+00
  -1.0432430e+00
  -1.0578920e+00
  -1.0864260e+00
  -1.1137390e+00
  -1.0633850e+00
  -1.0700990e+00
  -1.0514830e+00
  -1.0411070e+00
  -1.0791020e+00
  -1.0353090e+00
  -1.0150150e+00
  -1.0200500e+00
  -1.0450740e+00
  -1.0920720e+00
  -1.1074830e+00
  -1.0986330e+00
  -1.0931400e+00
  -1.0984800e+00
  -1.0989380e+00
  -1.0815430e+00
  -1.1322020e+00
  -1.1009220e+00
  -1.1132810e+00
  -1.1134340e+00
  -1.0893250e+00
  -1.1216740e+00
  -1.0877990e+00
  -1.0693360e+00
  -1.1245730e+00
  -1.0908510e+00
  -1.0606380e+00
  -1.0684200e+00
  -1.0617070e+00
  -1.0838320e+00
  -1.0899350e+00
  -1.1071780e+00
  -1.0783390e+00
  -1.0876460e+00
  -1.1134340e+00
  -1.0992430e+00
  -1.1022950e+00
  -1.0672000e+00
  -1.0861210e+00
  -1.1116030e+00
  -1.1013790e+00
  -1.0852050e+00
  -1.0580440e+00
  -1.0260010e+00
  -1.0417180e+00
  -1.0502620e+00
  -1.0801700e+00
  -1.0870360e+00
  -1.0488890e+00
  -1.0272220e+00
  -1.0626220e+00
  -1.0818480e+00
  -1.0227970e+00
  -1.0093690e+00
  -1.0433960e+00
  -1.0641480e+00
  -1.0992430e+00
  -1.1088560e+00
  -1.1085510e+00
  -1.0794070e+00
  -1.0606380e+00
  -1.0269170e+00
  -1.0797120e+00
  -1.0995480e+00
  -1.0800170e+00
  -1.0508730e+00
  -1.0916140e+00
  -1.0852050e+00
  -1.0821530e+00
  -1.0491940e+00
  -1.0780330e+00
  -1.0588070e+00
  -1.0777280e+00
  -1.0705570e+00
  -9.9960300e-01
  -1.0240170e+00
  -9.5489500e-01
  -9.7885100e-01
  -1.0035710e+00
  -1.0475160e+00
  -1.0482790e+00
  -1.0000610e+00
  -9.8541300e-01
  -8.9798000e-01
  -8.8180500e-01
  -9.1430700e-01
  -9.4253500e-01
  -9.4360400e-01
  -9.8907500e-01
  -9.9929800e-01
  -1.0346980e+00
  -1.0551450e+00
  -1.0873410e+00
  -1.0874940e+00
  -1.1479190e+00
  -1.1352540e+00
  -1.1216740e+00
  -1.1065670e+00
  -1.1032100e+00
  -1.1151120e+00
  -1.1372380e+00
  -1.1885070e+00
  -1.1650090e+00
  -1.1341860e+00
  -1.1828610e+00
  -1.1073300e+00
  -1.1041260e+00
  -1.1271670e+00
  -1.1021420e+00
  -1.0827640e+00
  -1.0870360e+00
  -1.0816960e+00
  -1.0614010e+00
  -1.1199950e+00
  -1.1135860e+00
  -1.1267090e+00
  -1.1080930e+00
  -1.1241150e+00
  -1.1192320e+00
  -1.1389160e+00
  -1.0650630e+00
  -1.1003110e+00
  -1.1183170e+00
  -1.1117550e+00
  -1.0833740e+00
  -1.1065670e+00
  -1.1613460e+00
  -1.1384580e+00
  -1.1549380e+00
  -1.1695860e+00
  -1.1402890e+00
  -1.0995480e+00
  -1.1190800e+00
  -1.1444090e+00
  -1.1207580e+00
  -1.1163330e+00
  -1.1090090e+00
  -1.1463930e+00
  -1.1135860e+00
  -1.0845950e+00
  -1.0560610e+00
  -1.0534670e+00
  -1.0612490e+00
  -1.0688780e+00
  -1.0774230e+00
  -1.0897830e+00
  -1.0859680e+00
  -1.0995480e+00
  -1.1027530e+00
  -1.1235050e+00
  -1.1376950e+00
  -1.1140440e+00
  -1.1196900e+00
  -1.0942080e+00
  -1.1273190e+00
  -1.1245730e+00
  -1.1401370e+00
  -1.1299130e+00
  -1.0629270e+00
  -1.0667420e+00
  -1.0755920e+00
  -1.1416630e+00
  -1.1347960e+00
  -1.1776730e+00
  -1.1422730e+00
  -1.1184690e+00
  -1.1216740e+00
  -1.0894780e+00
  -1.0943600e+00
  -1.0263060e+00
  -1.0708620e+00
  -1.1032100e+00
  -1.1640930e+00
  -1.1772160e+00
  -1.1456300e+00
  -1.1009220e+00
  -1.0809330e+00
  -1.0781860e+00
  -1.0752870e+00
  -1.0827640e+00
  -1.1067200e+00
  -1.1050420e+00
  -1.0859680e+00
  -1.1105350e+00
  -1.0731510e+00
  -1.0784910e+00
  -1.1007690e+00
  -1.1061100e+00
  -1.1703490e+00
  -1.1250310e+00
  -1.1183170e+00
  -1.1154170e+00
  -1.1282350e+00
  -1.1921690e+00
  -1.2199400e+00
  -1.1695860e+00
  -1.1737060e+00
  -1.1833190e+00
  -1.1834720e+00
  -1.2176510e+00
  -1.1918640e+00
  -1.2249760e+00
  -1.2139890e+00
  -1.2007140e+00
  -1.1650090e+00
  -1.2107850e+00
  -1.1999510e+00
  -1.1776730e+00
  -1.1984250e+00
  -1.1743160e+00
  -1.1799620e+00
  -1.1680600e+00
  -1.1924740e+00
  -1.2057500e+00
  -1.1816410e+00
  -1.1965940e+00
  -1.2071230e+00
  -1.2219240e+00
  -1.2190250e+00
  -1.2191770e+00
  -1.1376950e+00
  -1.1473080e+00
  -1.1596680e+00
  -1.1499020e+00
  -1.1729430e+00
  -1.1793520e+00
  -1.2171940e+00
  -1.1763000e+00
  -1.2055970e+00
  -1.2130740e+00
  -1.2144470e+00
  -1.1857600e+00
  -1.2059020e+00
  -1.1985780e+00
  -1.2240600e+00
  -1.2207030e+00
  -1.1927800e+00
  -1.1933900e+00
  -1.2042240e+00
  -1.1843870e+00
  -1.2396240e+00
  -1.2193300e+00
  -1.2438960e+00
  -1.2358090e+00
  -1.2690730e+00
  -1.2619020e+00
  -1.2162780e+00
  -1.2048340e+00
  -1.2205510e+00
  -1.2054440e+00
  -1.2019350e+00
  -1.2236020e+00
  -1.2504580e+00
  -1.1843870e+00
  -1.1402890e+00
  -1.1671450e+00
  -1.1929320e+00
  -1.1860660e+00
  -1.1912540e+00
  -1.1727910e+00
  -1.2077330e+00
  -1.2422180e+00
  -1.1831670e+00
  -1.2057500e+00
  -1.2220760e+00
  -1.2182620e+00
  -1.2248230e+00
  -1.2675480e+00
  -1.1981200e+00
  -1.2339780e+00
  -1.2287900e+00
  -1.2289430e+00
  -1.2254330e+00
  -1.2564090e+00
  -1.2399290e+00
  -1.2036130e+00
  -1.2229920e+00
  -1.2420650e+00
  -1.2019350e+00
  -1.2106320e+00
  -1.2342830e+00
  -1.2440490e+00
  -1.2188720e+00
  -1.2269590e+00
  -1.2055970e+00
  -1.2239070e+00
  -1.2388610e+00
  -1.2202450e+00
  -1.1996460e+00
  -1.2597660e+00
  -1.2788390e+00
  -1.2638850e+00
  -1.2638850e+00
  -1.2376400e+00
  -1.2432860e+00
  -1.2471010e+00
  -1.2590030e+00
  -1.2216190e+00
  -1.1996460e+00
  -1.1956790e+00
  -1.2298580e+00
  -1.2312320e+00
  -1.2052920e+00
  -1.2344360e+00
  -1.2669370e+00
  -1.2806700e+00
  -1.2100220e+00
  -1.2522890e+00
  -1.2388610e+00
  -1.2329100e+00
  -1.2251280e+00
  -1.3009640e+00
  -1.2904360e+00
  -1.2379460e+00
  -1.2312320e+00
  -1.2458800e+00
  -1.2979130e+00
  -1.3098140e+00
  -1.2757870e+00
  -1.2640380e+00
  -1.2280270e+00
  -1.2280270e+00
  -1.2615970e+00
  -1.2377930e+00
  -1.2429810e+00
  -1.2783810e+00
  -1.2635800e+00
  -1.3017270e+00
  -1.2988280e+00
  -1.2695310e+00
  -1.2924190e+00
  -1.2220760e+00
  -1.2411500e+00
  -1.2788390e+00
  -1.2715150e+00
  -1.2791440e+00
  -1.2310790e+00
  -1.2031560e+00
  -1.2451170e+00
  -1.2425230e+00
  -1.2232970e+00
  -1.2171940e+00
  -1.2365720e+00
  -1.2239070e+00
  -1.2295530e+00
  -1.2715150e+00
  -1.2963870e+00
  -1.2466430e+00
  -1.3345340e+00
  -1.2739560e+00
  -1.2709050e+00
  -1.2269590e+00
  -1.2646480e+00
  -1.2654110e+00
  -1.2422180e+00
  -1.2916560e+00
  -1.2921140e+00
  -1.2551880e+00
  -1.2362670e+00
  -1.2615970e+00
  -1.2243650e+00
  -1.2373350e+00
  -1.2948610e+00
  -1.3096620e+00
  -1.2359620e+00
  -1.2522890e+00
  -1.2849430e+00
  -1.2286380e+00
  -1.2297060e+00
  -1.2525940e+00
  -1.2213130e+00
  -1.2184140e+00
  -1.2164310e+00
  -1.2063600e+00
  -1.2211610e+00
  -1.2510680e+00
  -1.2171940e+00
  -1.2788390e+00
  -1.2460330e+00
  -1.2152100e+00
  -1.1926270e+00
  -1.2889100e+00
  -1.2556460e+00
  -1.2590030e+00
  -1.2734990e+00
  -1.2124630e+00
  -1.1978150e+00
  -1.2399290e+00
  -1.2637330e+00
  -1.2625120e+00
  -1.2487790e+00
  -1.2341310e+00
  -1.2776180e+00
  -1.2533570e+00
  -1.3014220e+00
  -1.3146970e+00
  -1.2338260e+00
  -1.2106320e+00
  -1.1802670e+00
  -1.2644960e+00
  -1.2905880e+00
  -1.2364200e+00
  -1.2638850e+00
  -1.2623600e+00
  -1.2542720e+00
  -1.2545780e+00
  -1.2536620e+00
  -1.2539670e+00
  -1.2736510e+00
  -1.2652590e+00
  -1.3075260e+00
  -1.2759400e+00
  -1.2374880e+00
  -1.2379460e+00
  -1.2736510e+00
  -1.2814330e+00
  -1.2809750e+00
  -1.2702940e+00
  -1.2878420e+00
  -1.2702940e+00
  -1.2557980e+00
  -1.2919620e+00
  -1.3081360e+00
  -1.2323000e+00
  -1.2545780e+00
  -1.2255860e+00
  -1.2908940e+00
  -1.2440490e+00
  -1.2944030e+00
  -1.2472530e+00
  -1.2289430e+00
  -1.2309270e+00
  -1.1659240e+00
  -1.2052920e+00
  -1.1807250e+00
  -1.1576840e+00
  -1.1535640e+00
  -1.1567690e+00
  -1.1389160e+00
  -1.1326600e+00
  -1.1119080e+00
  -1.1543270e+00
  -1.1323550e+00
  -1.0997010e+00
  -1.1242680e+00
  -1.1253360e+00
  -1.1097720e+00
  -1.1102290e+00
  -1.1088560e+00
  -1.0536190e+00
  -1.0275270e+00
  -1.0264590e+00
  -1.0133360e+00
  -9.7030600e-01
  -9.3643200e-01
  -9.4192500e-01
  -9.4070400e-01
  -9.2346200e-01
  -9.0805100e-01
  -9.1918900e-01
  -9.1980000e-01
  -9.0591400e-01
  -8.9645400e-01
  -9.0881300e-01
  -8.7204000e-01
  -8.9859000e-01
  -9.1049200e-01
  -8.7524400e-01
  -8.9477500e-01
  -8.7783800e-01
  -8.6273200e-01
  -8.9630100e-01
  -9.1507000e-01
  -9.0530400e-01
  -9.1049200e-01
  -8.7051400e-01
  -9.1583300e-01
  -8.8211100e-01
  -9.0377800e-01
  -9.4177200e-01
  -9.4726600e-01
  -9.4268800e-01
  -9.8419200e-01
  -9.3154900e-01
  -9.2269900e-01
  -9.2330900e-01
  -9.6511800e-01
  -9.7900400e-01
  -9.6115100e-01
  -9.5550500e-01
  -9.4177200e-01
  -1.0055540e+00
  -1.0177610e+00
  -9.9685700e-01
  -1.0189820e+00
  -1.0124210e+00
  -1.0270690e+00
  -1.0084530e+00
  -1.0212710e+00
  -1.0417180e+00
  -1.0775760e+00
  -1.0737610e+00
  -1.0682680e+00
  -1.1334230e+00
  -1.0926820e+00
  -1.1474610e+00
  -1.1767580e+00
  -1.1761470e+00
  -1.1692810e+00
  -1.2094120e+00
  -1.2036130e+00
  -1.2573240e+00
  -1.2832640e+00
  -1.2821960e+00
  -1.3172910e+00
  -1.2937930e+00
  -1.2908940e+00
  -1.3789370e+00
  -1.3519290e+00
  -1.3822940e+00
  -1.4004520e+00
  -1.4019780e+00
  -1.4225770e+00
  -1.4430240e+00
  -1.4120480e+00
  -1.3755800e+00
  -1.3940430e+00
  -1.4498900e+00
  -1.4442440e+00
  -1.4723210e+00
  -1.4369200e+00
  -1.4112850e+00
  -1.4466860e+00
  -1.3824460e+00
  -1.3848880e+00
  -1.3737490e+00
  -1.3790890e+00
  -1.4062500e+00
  -1.3909910e+00
  -1.4140320e+00
  -1.4356990e+00
  -1.4035030e+00
  -1.4021300e+00
  -1.4230350e+00
  -1.4712520e+00
  -1.5112300e+00
  -1.4555360e+00
  -1.4868160e+00
  -1.4390560e+00
  -1.4616390e+00
  -1.4602660e+00
  -1.4901730e+00
  -1.4378360e+00
  -1.3937380e+00
  -1.3790890e+00
  -1.3545230e+00
  -1.3764950e+00
  -1.3542180e+00
  -1.3856510e+00
  -1.4033510e+00
  -1.3880920e+00
  -1.3983150e+00
  -1.4427190e+00
  -1.4021300e+00
  -1.4303590e+00
  -1.4149480e+00
  -1.4244080e+00
  -1.4323430e+00
  -1.3977050e+00
  -1.4140320e+00
  -1.4036560e+00
  -1.3233950e+00
  -1.3212590e+00
  -1.3078310e+00
  -1.2809750e+00
  -1.2971500e+00
  -1.2849430e+00
  -1.2113950e+00
  -1.2181090e+00
  -1.1819460e+00
  -1.0804750e+00
  -1.0119630e+00
  -9.4787600e-01
  -9.2681900e-01
  -9.1690100e-01
  -8.6273200e-01
  -7.9620400e-01
  -7.5073200e-01
  -6.6314700e-01
  -6.1264000e-01
  -4.5608500e-01
  -3.6880500e-01
  -1.5914900e-01
  -5.8594000e-02
   8.4686000e-02
   2.6809700e-01
   5.1712000e-01
   7.3852500e-01
   1.0125730e+00
   1.1735530e+00
   1.3780210e+00
   1.5888980e+00
   1.7758180e+00
   2.0156860e+00
   2.1951290e+00
   2.4090580e+00
   2.4525450e+00
   2.3712160e+00
   2.2483830e+00
   1.8499760e+00
   1.3291930e+00
   9.1629000e-01
   5.1895100e-01
   2.0370500e-01
  -1.1673000e-01
  -3.1570400e-01
  -5.2764900e-01
  -6.9686900e-01
  -7.8567500e-01
  -7.9437300e-01
  -7.8628500e-01
  -7.9452500e-01
  -8.7631200e-01
  -9.7915600e-01
  -1.0400390e+00
  -1.1367800e+00
  -1.2210080e+00
  -1.3414000e+00
  -1.4077760e+00
  -1.4851380e+00
  -1.5394590e+00
  -1.6404720e+00
  -1.6781620e+00
  -1.7488100e+00
  -1.7366030e+00
  -1.6885380e+00
  -1.7074580e+00
  -1.6990660e+00
  -1.6308590e+00
  -1.5777590e+00
  -1.6235350e+00
  -1.5757750e+00
  -1.6242980e+00
  -1.5203860e+00
  -1.4437870e+00
  -1.4002990e+00
  -1.4532470e+00
  -1.3992310e+00
  -1.3774110e+00
  -1.3600160e+00
  -1.3203430e+00
  -1.3349910e+00
  -1.3186650e+00
  -1.3298030e+00
  -1.3198850e+00
  -1.3340760e+00
  -1.4636230e+00
  -1.4311220e+00
  -1.4225770e+00
  -1.3589480e+00
  -1.4361570e+00
  -1.4189150e+00
  -1.4537050e+00
  -1.3394170e+00
  -1.3385010e+00
  -1.3284300e+00
  -1.4025880e+00
  -1.4268490e+00
  -1.3864140e+00
  -1.3269040e+00
  -1.3603210e+00
  -1.3638310e+00
  -1.3432310e+00
  -1.4189150e+00
  -1.3728330e+00
  -1.4227290e+00
  -1.4086910e+00
  -1.3691710e+00
  -1.4346310e+00
  -1.3731380e+00
  -1.3775630e+00
  -1.4022830e+00
  -1.3969420e+00
  -1.3368230e+00
  -1.3648990e+00
  -1.4105220e+00
  -1.3580320e+00
  -1.3510130e+00
  -1.3584900e+00
  -1.3134770e+00
  -1.2956240e+00
  -1.3743590e+00
  -1.3748170e+00
  -1.4231870e+00
  -1.3729860e+00
  -1.3143920e+00
  -1.3690190e+00
  -1.3548280e+00
  -1.2954710e+00
  -1.3400270e+00
  -1.3494870e+00
  -1.2867740e+00
  -1.3023380e+00
  -1.3224790e+00
  -1.3214110e+00
  -1.3293460e+00
  -1.4027400e+00
  -1.3752750e+00
  -1.2992860e+00
  -1.3505550e+00
  -1.3731380e+00
  -1.3058470e+00
  -1.3371280e+00
  -1.4088440e+00
  -1.4910890e+00
  -1.4009090e+00
  -1.3537600e+00
  -1.2916560e+00
  -1.2141420e+00
  -1.2046810e+00
  -1.2570190e+00
  -1.3166810e+00
  -1.3002010e+00
  -1.2728880e+00
  -1.3290410e+00
  -1.2467960e+00
  -1.2835690e+00
  -1.2792970e+00
  -1.3243100e+00
  -1.3322450e+00
  -1.2979130e+00
  -1.2785340e+00
  -1.3140870e+00
  -1.2954710e+00
  -1.3151550e+00
  -1.2989810e+00
  -1.3380430e+00
  -1.2686160e+00
  -1.2908940e+00
  -1.3102720e+00
  -1.3571170e+00
  -1.3787840e+00
  -1.2829590e+00
  -1.2077330e+00
  -1.3192750e+00
  -1.3095090e+00
  -1.3522340e+00
  -1.3575740e+00
  -1.2319950e+00
  -1.2255860e+00
  -1.2548830e+00
  -1.2887570e+00
  -1.2072750e+00
  -1.2231450e+00
  -1.2805180e+00
  -1.2182620e+00
  -1.2716670e+00
  -1.3208010e+00
  -1.2644960e+00
  -1.2350460e+00
  -1.1529540e+00
  -1.1898800e+00
  -1.1828610e+00
  -1.2210080e+00
  -1.3436890e+00
  -1.2341310e+00
  -1.1018370e+00
  -1.1955260e+00
  -1.2934880e+00
  -1.1634830e+00
  -1.1096190e+00
  -1.2083440e+00
  -1.1817930e+00
  -1.1833190e+00
  -1.1192320e+00
  -1.1389160e+00
  -1.1128230e+00
  -1.0748290e+00
  -1.0559080e+00
  -1.1094670e+00
  -1.1555480e+00
  -1.1387630e+00
  -1.0977170e+00
  -1.0945130e+00
  -1.0508730e+00
  -1.0594180e+00
  -1.0250850e+00
  -1.0691830e+00
  -1.0984800e+00
  -1.0893250e+00
  -1.1294560e+00
  -1.0736080e+00
  -1.0404970e+00
  -1.0180660e+00
  -1.0670470e+00
  -1.0260010e+00
  -1.0099790e+00
  -9.4635000e-01
  -9.6099900e-01
  -1.0050960e+00
  -1.0119630e+00
  -9.9563600e-01
  -9.0286300e-01
  -9.1857900e-01
  -8.6593600e-01
  -8.4930400e-01
  -8.5922200e-01
  -8.7814300e-01
  -8.8897700e-01
  -9.0286300e-01
  -8.7646500e-01
  -9.1949500e-01
  -8.0780000e-01
  -8.1039400e-01
  -7.6095600e-01
  -7.3883100e-01
  -7.8720100e-01
  -7.4859600e-01
  -7.2906500e-01
  -7.4218700e-01
  -7.3013300e-01
  -7.2753900e-01
  -6.7611700e-01
  -7.2631800e-01
  -7.0449800e-01
  -7.0068400e-01
  -6.9931000e-01
  -6.5979000e-01
  -6.8878200e-01
  -6.4590500e-01
  -6.6803000e-01
  -6.9213900e-01
  -6.1889600e-01
  -5.4931600e-01
  -6.0928300e-01
  -6.1279300e-01
  -5.8914200e-01
  -5.7907100e-01
  -5.5374100e-01
  -5.6930500e-01
  -5.3649900e-01
  -5.3955100e-01
  -4.9209600e-01
  -5.2276600e-01
  -5.0796500e-01
  -5.4763800e-01
  -5.3329500e-01
  -4.7119100e-01
  -4.6844500e-01
  -4.6051000e-01
  -4.9255400e-01
  -4.3731700e-01
  -4.2709400e-01
  -4.4632000e-01
  -4.7729500e-01
  -4.3029800e-01
  -4.6310400e-01
  -5.2307100e-01
  -4.9652100e-01
  -5.1116900e-01
  -5.0186200e-01
  -4.7882100e-01
  -5.2124000e-01
  -4.9987800e-01
  -4.8812900e-01
  -5.2703900e-01
  -5.1742600e-01
  -5.3863500e-01
  -5.5969200e-01
  -5.7251000e-01
  -6.2683100e-01
  -6.1920200e-01
  -6.7199700e-01
  -7.0907600e-01
  -7.0434600e-01
  -7.0617700e-01
  -7.0724500e-01
  -7.7163700e-01
  -7.6812700e-01
  -8.4457400e-01
  -8.0841100e-01
  -8.2565300e-01
  -8.4320100e-01
  -9.0545700e-01
  -9.1247600e-01
  -9.6603400e-01
  -9.5047000e-01
  -9.1476400e-01
  -9.2437700e-01
  -9.7595200e-01
  -9.5138500e-01
  -9.6862800e-01
  -1.0255430e+00
  -1.0762020e+00
  -1.1306760e+00
  -1.1018370e+00
  -1.1198430e+00
  -1.1231990e+00
  -1.1033630e+00
  -1.1613460e+00
  -1.1563110e+00
  -1.2152100e+00
  -1.2443540e+00
  -1.3070680e+00
  -1.2745670e+00
  -1.2538150e+00
  -1.3046260e+00
  -1.3255310e+00
  -1.3090520e+00
  -1.2677000e+00
  -1.3743590e+00
  -1.3107300e+00
  -1.3699340e+00
  -1.3790890e+00
  -1.3720700e+00
  -1.3861080e+00
  -1.3835140e+00
  -1.3447570e+00
  -1.3810730e+00
  -1.4201350e+00
  -1.3981630e+00
  -1.4381410e+00
  -1.4497380e+00
  -1.4781190e+00
  -1.3929750e+00
  -1.3806150e+00
  -1.3728330e+00
  -1.4746090e+00
  -1.4668270e+00
  -1.4976500e+00
  -1.4622500e+00
  -1.4846800e+00
  -1.4556880e+00
  -1.5008540e+00
  -1.4797970e+00
  -1.4431760e+00
  -1.4350890e+00
  -1.4031980e+00
  -1.4813230e+00
  -1.4694210e+00
  -1.4601140e+00
  -1.4288330e+00
  -1.4739990e+00
  -1.5182500e+00
  -1.4393620e+00
  -1.5045170e+00
  -1.4700320e+00
  -1.4205930e+00
  -1.5063480e+00
  -1.5104680e+00
  -1.4772030e+00
  -1.4743040e+00
  -1.4353940e+00
  -1.4360050e+00
  -1.4190670e+00
  -1.4479060e+00
  -1.3813780e+00
  -1.4155580e+00
  -1.4083860e+00
  -1.4303590e+00
  -1.4439390e+00
  -1.4468380e+00
  -1.4556880e+00
  -1.5124510e+00
  -1.4660640e+00
  -1.4711000e+00
  -1.5046690e+00
  -1.5164180e+00
  -1.4941410e+00
  -1.4746090e+00
  -1.4179990e+00
  -1.4453120e+00
  -1.5011600e+00
  -1.4936830e+00
  -1.4712520e+00
  -1.5103150e+00
  -1.4503480e+00
  -1.4788820e+00
  -1.5106200e+00
  -1.5000920e+00
  -1.5234370e+00
  -1.4872740e+00
  -1.4955140e+00
  -1.5014650e+00
  -1.4692690e+00
  -1.5420530e+00
  -1.4875790e+00
  -1.5211490e+00
  -1.4660640e+00
  -1.4897160e+00
  -1.5190120e+00
  -1.5342710e+00
  -1.5322880e+00
  -1.5315250e+00
  -1.5071110e+00
  -1.5513610e+00
  -1.4767460e+00
  -1.5197750e+00
  -1.4874270e+00
  -1.4950560e+00
  -1.4752200e+00
  -1.4851380e+00
  -1.5144350e+00
  -1.4381410e+00
  -1.4529420e+00
  -1.4929200e+00
  -1.4448550e+00
  -1.5158080e+00
  -1.5019230e+00
  -1.5357970e+00
  -1.5313720e+00
  -1.4665220e+00
  -1.4355470e+00
  -1.4785770e+00
  -1.5074160e+00
  -1.4793400e+00
  -1.5351870e+00
  -1.4608760e+00
  -1.4608760e+00
  -1.4910890e+00
  -1.4848330e+00
  -1.4817810e+00
  -1.5202330e+00
  -1.4894100e+00
  -1.4447020e+00
  -1.4494320e+00
  -1.5199280e+00
  -1.5290830e+00
  -1.5637210e+00
  -1.5278630e+00
  -1.4927670e+00
  -1.4892580e+00
  -1.5071110e+00
  -1.5023800e+00
  -1.4932250e+00
  -1.4874270e+00
  -1.4753720e+00
  -1.4971920e+00
  -1.4906310e+00
  -1.5104680e+00
  -1.5354920e+00
  -1.4633180e+00
  -1.5240480e+00
  -1.4805600e+00
  -1.5588380e+00
  -1.5095520e+00
  -1.4953610e+00
  -1.5476990e+00
  -1.4801030e+00
  -1.5065000e+00
  -1.5487670e+00
  -1.5502930e+00
  -1.5184020e+00
  -1.5486150e+00
  -1.5296940e+00
  -1.4695740e+00
  -1.5124510e+00
  -1.5097050e+00
  -1.4927670e+00
  -1.4817810e+00
  -1.5522770e+00
  -1.5074160e+00
  -1.5686040e+00
  -1.5539550e+00
  -1.5032960e+00
  -1.4988710e+00
  -1.4830020e+00
  -1.5046690e+00
  -1.4733890e+00
  -1.4622500e+00
  -1.5235900e+00
  -1.4730830e+00
  -1.5023800e+00
  -1.5338130e+00
  -1.5052800e+00
  -1.5173340e+00
  -1.5448000e+00
  -1.5267940e+00
  -1.5109250e+00
  -1.4663700e+00
  -1.5206910e+00
  -1.5440370e+00
  -1.5138240e+00
  -1.5046690e+00
  -1.4924620e+00
  -1.5182500e+00
  -1.4883420e+00
  -1.4643860e+00
  -1.5174870e+00
  -1.5101620e+00
  -1.4950560e+00
  -1.5122990e+00
  -1.4965820e+00
  -1.5306090e+00
  -1.4976500e+00
  -1.5625000e+00
  -1.5470890e+00
  -1.5286250e+00
  -1.5637210e+00
  -1.5037540e+00
  -1.4878850e+00
  -1.5394590e+00
  -1.4961240e+00
  -1.5126040e+00
  -1.5199280e+00
  -1.4958190e+00
  -1.4660640e+00
  -1.4634700e+00
  -1.5019230e+00
  -1.4466860e+00
  -1.5283200e+00
  -1.5615840e+00
  -1.5068050e+00
  -1.5115360e+00
  -1.5142820e+00
  -1.5258790e+00
  -1.5617370e+00
  -1.5100100e+00
  -1.5010070e+00
  -1.5275570e+00
  -1.5321350e+00
  -1.5252690e+00
  -1.4945980e+00
  -1.5583800e+00
  -1.5245060e+00
  -1.6101070e+00
  -1.5525820e+00
  -1.5161130e+00
  -1.5272520e+00
  -1.5499880e+00
  -1.5536500e+00
  -1.5550230e+00
  -1.5177920e+00
  -1.5242000e+00
  -1.5867610e+00
  -1.5965270e+00
  -1.5733340e+00
  -1.5325930e+00
  -1.5658570e+00
  -1.5361020e+00
  -1.5940860e+00
  -1.6070560e+00
  -1.5736390e+00
  -1.5432740e+00
  -1.5890500e+00
  -1.6206360e+00
  -1.5602110e+00
  -1.6026310e+00
  -1.6059880e+00
  -1.6201780e+00
  -1.6192630e+00
  -1.5866090e+00
  -1.5591430e+00
  -1.5803530e+00
  -1.5830990e+00
  -1.6046140e+00
  -1.5994260e+00
  -1.6226200e+00
  -1.6580200e+00
  -1.6227720e+00
  -1.5885930e+00
  -1.6015620e+00
  -1.6314700e+00
  -1.6328430e+00
  -1.6380310e+00
  -1.5644840e+00
  -1.5780640e+00
  -1.5617370e+00
  -1.5515140e+00
  -1.6201780e+00
  -1.6316220e+00
  -1.6064450e+00
  -1.5698240e+00
  -1.6419980e+00
  -1.6339110e+00
  -1.6609190e+00
  -1.6410830e+00
  -1.6363530e+00
  -1.6601560e+00
  -1.6192630e+00
  -1.6390990e+00
  -1.6026310e+00
  -1.6204830e+00
  -1.6493230e+00
  -1.6625980e+00
  -1.5910340e+00
  -1.5777590e+00
  -1.6238400e+00
  -1.6194150e+00
  -1.5980530e+00
  -1.5892030e+00
  -1.6223140e+00
  -1.6052250e+00
  -1.6450500e+00
  -1.5974430e+00
  -1.6410830e+00
  -1.6343690e+00
  -1.6696170e+00
  -1.6163640e+00
  -1.6473390e+00
  -1.6381840e+00
  -1.5948490e+00
  -1.5777590e+00
  -1.6426090e+00
  -1.6670230e+00
  -1.6276550e+00
  -1.6322330e+00
  -1.6442870e+00
  -1.6474910e+00
  -1.6575620e+00
  -1.6435240e+00
  -1.6355900e+00
  -1.6532900e+00
  -1.6442870e+00
  -1.6555790e+00
  -1.6973880e+00
  -1.6383360e+00
  -1.6746520e+00
  -1.6322330e+00
  -1.6445920e+00
  -1.6581730e+00
  -1.6285710e+00
  -1.6780090e+00
  -1.6204830e+00
  -1.6523740e+00
  -1.6564940e+00
  -1.6798400e+00
  -1.6401670e+00
  -1.6851810e+00
  -1.6532900e+00
  -1.7114260e+00
  -1.6825870e+00
  -1.6580200e+00
  -1.6127010e+00
  -1.6510010e+00
  -1.6583250e+00
  -1.6745000e+00
  -1.6278080e+00
  -1.6984560e+00
  -1.7025760e+00
  -1.6586300e+00
  -1.6357420e+00
  -1.6763310e+00
  -1.6593930e+00
  -1.6944890e+00
  -1.7063900e+00
  -1.7080690e+00
  -1.6838070e+00
  -1.6979980e+00
  -1.6598510e+00
  -1.6706850e+00
  -1.6650390e+00
  -1.6949460e+00
  -1.6273500e+00
  -1.6429140e+00
  -1.6624450e+00
  -1.6357420e+00
  -1.6723630e+00
  -1.6905210e+00
  -1.6558840e+00
  -1.7031860e+00
  -1.7222600e+00
  -1.7031860e+00
  -1.6917420e+00
  -1.6664120e+00
  -1.6650390e+00
  -1.6918950e+00
  -1.6877750e+00
  -1.6534420e+00
  -1.6806030e+00
  -1.6897580e+00
  -1.6154480e+00
  -1.6230770e+00
  -1.6644290e+00
  -1.6355900e+00
  -1.6903690e+00
  -1.6679380e+00
  -1.7120360e+00
  -1.6294860e+00
  -1.6688540e+00
  -1.6700740e+00
  -1.6699220e+00
  -1.6867070e+00
  -1.6780090e+00
  -1.6336060e+00
  -1.6839600e+00
  -1.7143250e+00
  -1.6552730e+00
  -1.6819760e+00
  -1.6950990e+00
  -1.6741940e+00
  -1.6859440e+00
  -1.6891480e+00
  -1.6561890e+00
  -1.7381290e+00
  -1.6914370e+00
  -1.6928100e+00
  -1.6981510e+00
  -1.6941830e+00
  -1.7358400e+00
  -1.6906740e+00
  -1.6658020e+00
  -1.6526790e+00
  -1.6864010e+00
  -1.7256160e+00
  -1.6783140e+00
  -1.6761780e+00
  -1.6270450e+00
  -1.6755680e+00
  -1.6830440e+00
  -1.6995240e+00
  -1.7047120e+00
  -1.7298890e+00
  -1.6813660e+00
  -1.7115780e+00
  -1.7167660e+00
  -1.6925050e+00
  -1.6947940e+00
  -1.6949460e+00
  -1.6624450e+00
  -1.7074580e+00
  -1.6561890e+00
  -1.6543580e+00
  -1.6889950e+00
  -1.6583250e+00
  -1.6671750e+00
  -1.6853330e+00
  -1.7076110e+00
  -1.6664120e+00
  -1.6714480e+00
  -1.6474910e+00
  -1.6824340e+00
  -1.6995240e+00
  -1.6760250e+00
  -1.6760250e+00
  -1.6716000e+00
  -1.6748050e+00
  -1.7263790e+00
  -1.6500850e+00
  -1.6575620e+00
  -1.7050170e+00
  -1.6413880e+00
  -1.7164610e+00
  -1.6928100e+00
  -1.6937260e+00
  -1.7105100e+00
  -1.7294310e+00
  -1.7259220e+00
  -1.6813660e+00
  -1.7257690e+00
  -1.6654970e+00
  -1.6741940e+00
  -1.6981510e+00
  -1.6607670e+00
  -1.6462710e+00
  -1.7250060e+00
  -1.6798400e+00
  -1.7265320e+00
  -1.6894530e+00
  -1.7131040e+00
  -1.7266850e+00
  -1.6577150e+00
  -1.6906740e+00
  -1.7123410e+00
  -1.6813660e+00
  -1.7349240e+00
  -1.7396550e+00
  -1.7501830e+00
  -1.6711430e+00
  -1.6902160e+00
  -1.6603090e+00
  -1.7213440e+00
  -1.6490170e+00
  -1.6871640e+00
  -1.6549680e+00
  -1.6481020e+00
  -1.6401670e+00
  -1.7150880e+00
  -1.6699220e+00
  -1.6406250e+00
  -1.6690060e+00
  -1.6418460e+00
  -1.6349790e+00
  -1.6314700e+00
  -1.6390990e+00
  -1.5884400e+00
  -1.5980530e+00
  -1.6073610e+00
  -1.5551760e+00
  -1.5852360e+00
  -1.5940860e+00
  -1.5988160e+00
  -1.5751650e+00
  -1.5762330e+00
  -1.5046690e+00
  -1.4875790e+00
  -1.4781190e+00
  -1.4416500e+00
  -1.4770510e+00
  -1.4529420e+00
  -1.5045170e+00
  -1.4431760e+00
  -1.4643860e+00
  -1.4122010e+00
  -1.4566040e+00
  -1.4677430e+00
  -1.4187620e+00
  -1.3711550e+00
  -1.3366700e+00
  -1.3104250e+00
  -1.3882450e+00
  -1.3577270e+00
  -1.3569640e+00
  -1.3842770e+00
  -1.3537600e+00
  -1.3648990e+00
  -1.4155580e+00
  -1.3459780e+00
  -1.3462830e+00
  -1.3790890e+00
  -1.3333130e+00
  -1.2835690e+00
  -1.3227840e+00
  -1.3194270e+00
  -1.3609310e+00
  -1.3957210e+00
  -1.4002990e+00
  -1.4093020e+00
  -1.4520260e+00
  -1.3623050e+00
  -1.4366150e+00
  -1.4413450e+00
  -1.4358520e+00
  -1.3903810e+00
  -1.4013670e+00
  -1.3516240e+00
  -1.3764950e+00
  -1.4079280e+00
  -1.3978580e+00
  -1.4602660e+00
  -1.4724730e+00
  -1.4837650e+00
  -1.4601140e+00
  -1.4254760e+00
  -1.4523320e+00
  -1.4819340e+00
  -1.4822390e+00
  -1.4607240e+00
  -1.4569090e+00
  -1.4965820e+00
  -1.5098570e+00
  -1.5000920e+00
  -1.5927120e+00
  -1.5483090e+00
  -1.5869140e+00
  -1.5959170e+00
  -1.6110230e+00
  -1.6239930e+00
  -1.6192630e+00
  -1.6395570e+00
  -1.6738890e+00
  -1.6897580e+00
  -1.6493230e+00
  -1.6459660e+00
  -1.7103580e+00
  -1.7437740e+00
  -1.6647340e+00
  -1.7480470e+00
  -1.6943360e+00
  -1.7619320e+00
  -1.7750550e+00
  -1.7192080e+00
  -1.7309570e+00
  -1.7572020e+00
  -1.7675780e+00
  -1.7869570e+00
  -1.8226620e+00
  -1.8493650e+00
  -1.8510440e+00
  -1.8722530e+00
  -1.8338010e+00
  -1.8399050e+00
  -1.8463130e+00
  -1.8447880e+00
  -1.8460080e+00
  -1.8218990e+00
  -1.8232730e+00
  -1.8122860e+00
  -1.8165590e+00
  -1.7970280e+00
  -1.7610170e+00
  -1.8041990e+00
  -1.8356320e+00
  -1.8423460e+00
  -1.8595890e+00
  -1.8351750e+00
  -1.8360900e+00
  -1.8144230e+00
  -1.8348690e+00
  -1.8594360e+00
  -1.8614200e+00
  -1.8272400e+00
  -1.8518070e+00
  -1.8548580e+00
  -1.8476870e+00
  -1.8148800e+00
  -1.8106080e+00
  -1.8093870e+00
  -1.8508910e+00
  -1.8487550e+00
  -1.8473820e+00
  -1.8348690e+00
  -1.8429570e+00
  -1.8803410e+00
  -1.8879700e+00
  -1.8991090e+00
  -1.8521120e+00
  -1.8478390e+00
  -1.8447880e+00
  -1.8446350e+00
  -1.8548580e+00
  -1.8605040e+00
  -1.8440250e+00
  -1.8382260e+00
  -1.8254090e+00
  -1.7810060e+00
  -1.7565920e+00
  -1.7321780e+00
  -1.7346190e+00
  -1.6867070e+00
  -1.6171260e+00
  -1.5797420e+00
  -1.5376280e+00
  -1.4750670e+00
  -1.3978580e+00
  -1.3098140e+00
  -1.3113400e+00
  -1.3034060e+00
  -1.2809750e+00
  -1.2554930e+00
  -1.2321470e+00
  -1.1293030e+00
  -1.0441590e+00
  -9.5001200e-01
  -8.6898800e-01
  -7.5271600e-01
  -5.8013900e-01
  -4.1656500e-01
  -2.8625500e-01
  -5.4474000e-02
   1.3595600e-01
   4.0191700e-01
   5.6243900e-01
   7.0541400e-01
   9.4497700e-01
   1.1604310e+00
   1.3572690e+00
   1.5582280e+00
   1.6613770e+00
   1.7671200e+00
   1.7729190e+00
   1.6519170e+00
   1.4370730e+00
   1.0127260e+00
   5.2383400e-01
   5.4474000e-02
  -3.2180800e-01
  -6.7596400e-01
  -9.4314600e-01
  -1.1248780e+00
  -1.2770080e+00
  -1.4505000e+00
  -1.4570620e+00
  -1.4399720e+00
  -1.4541630e+00
  -1.4210510e+00
  -1.4613340e+00
  -1.5185550e+00
  -1.5974430e+00
  -1.6694640e+00
  -1.7642210e+00
  -1.8194580e+00
  -1.8888850e+00
  -1.9645690e+00
  -2.0161440e+00
  -2.0507810e+00
  -2.0610050e+00
  -2.0564270e+00
  -2.0483400e+00
  -2.0553590e+00
  -2.0208740e+00
  -1.9711300e+00
  -1.9451900e+00
  -1.9865420e+00
  -1.9552610e+00
  -1.9281010e+00
  -1.9424440e+00
  -1.8933110e+00
  -1.8362430e+00
  -1.8304440e+00
  -1.8351750e+00
  -1.8150330e+00
  -1.7839050e+00
  -1.7634580e+00
  -1.8545530e+00
  -1.8106080e+00
  -1.7601010e+00
  -1.8255620e+00
  -1.7646790e+00
  -1.7793270e+00
  -1.7697140e+00
  -1.7205810e+00
  -1.7726140e+00
  -1.7933650e+00
  -1.7309570e+00
  -1.7765810e+00
  -1.7887880e+00
  -1.7944340e+00
  -1.7356870e+00
  -1.7730710e+00
  -1.7958070e+00
  -1.7659000e+00
  -1.7686460e+00
  -1.8040470e+00
  -1.7562870e+00
  -1.7164610e+00
  -1.7521670e+00
  -1.7781070e+00
  -1.8388370e+00
  -1.8133540e+00
  -1.7803960e+00
  -1.7681880e+00
  -1.8081670e+00
  -1.8234250e+00
  -1.8002320e+00
  -1.7411800e+00
  -1.7175290e+00
  -1.7243960e+00
  -1.7214970e+00
  -1.7530820e+00
  -1.7581180e+00
  -1.7631530e+00
  -1.7720030e+00
  -1.7745970e+00
  -1.7733760e+00
  -1.7933650e+00
  -1.8086240e+00
  -1.8208310e+00
  -1.8098450e+00
  -1.7883300e+00
  -1.7826840e+00
  -1.7979430e+00
  -1.7976380e+00
  -1.8104550e+00
  -1.8127440e+00
  -1.7784120e+00
  -1.7605590e+00
  -1.7774960e+00
  -1.7471310e+00
  -1.7239380e+00
  -1.7475890e+00
  -1.7399600e+00
  -1.7268370e+00
  -1.7149350e+00
  -1.6999820e+00
  -1.6870120e+00
  -1.6960140e+00
  -1.6481020e+00
  -1.6635130e+00
  -1.6716000e+00
  -1.7172240e+00
  -1.7048650e+00
  -1.6581730e+00
  -1.6662600e+00
  -1.6654970e+00
  -1.6751100e+00
  -1.7117310e+00
  -1.7121890e+00
  -1.7149350e+00
  -1.6835020e+00
  -1.6207890e+00
  -1.6032410e+00
  -1.6600040e+00
  -1.6653440e+00
  -1.6268920e+00
  -1.5687560e+00
  -1.5625000e+00
  -1.6151430e+00
  -1.6308590e+00
  -1.6194150e+00
  -1.6213990e+00
  -1.6777040e+00
  -1.7195130e+00
  -1.6616820e+00
  -1.6241460e+00
  -1.6481020e+00
  -1.6790770e+00
  -1.6584780e+00
  -1.6424560e+00
  -1.6220090e+00
  -1.6558840e+00
  -1.6439820e+00
  -1.6008000e+00
  -1.5513610e+00
  -1.5631100e+00
  -1.5760800e+00
  -1.5568540e+00
  -1.5827940e+00
  -1.5951540e+00
  -1.5638730e+00
  -1.5464780e+00
  -1.5890500e+00
  -1.5994260e+00
  -1.5834050e+00
  -1.5904240e+00
  -1.5855410e+00
  -1.5895080e+00
  -1.5731810e+00
  -1.5354920e+00
  -1.5686040e+00
  -1.5634160e+00
  -1.5577700e+00
  -1.5835570e+00
  -1.6209410e+00
  -1.5928650e+00
  -1.5609740e+00
  -1.5672300e+00
  -1.5580750e+00
  -1.5686040e+00
  -1.6059880e+00
  -1.5486150e+00
  -1.5435790e+00
  -1.5856930e+00
  -1.5289310e+00
  -1.5138240e+00
  -1.4967350e+00
  -1.4431760e+00
  -1.4772030e+00
  -1.4558410e+00
  -1.4328000e+00
  -1.4506530e+00
  -1.4097600e+00
  -1.4451600e+00
  -1.4033510e+00
  -1.3893130e+00
  -1.4054870e+00
  -1.3835140e+00
  -1.4111330e+00
  -1.3818360e+00
  -1.4053340e+00
  -1.3632200e+00
  -1.3638310e+00
  -1.3348390e+00
  -1.3166810e+00
  -1.3247680e+00
  -1.3208010e+00
  -1.3240050e+00
  -1.3256840e+00
  -1.3229370e+00
  -1.2776180e+00
  -1.2850950e+00
  -1.2406920e+00
  -1.2661740e+00
  -1.2573240e+00
  -1.2564090e+00
  -1.2408450e+00
  -1.1929320e+00
  -1.1703490e+00
  -1.1534120e+00
  -1.1306760e+00
  -1.1080930e+00
  -1.0717770e+00
  -1.0952760e+00
  -1.0935970e+00
  -1.0835270e+00
  -1.0803220e+00
  -1.1016850e+00
  -1.0725400e+00
  -1.0697940e+00
  -1.0301210e+00
  -1.0026550e+00
  -1.0261540e+00
  -1.0290530e+00
  -1.0099790e+00
  -9.8892200e-01
  -9.7091700e-01
  -9.5916700e-01
  -8.9675900e-01
  -8.9126600e-01
  -8.9325000e-01
  -8.9325000e-01
  -8.9935300e-01
  -8.8028000e-01
  -8.5083000e-01
  -8.6578400e-01
  -8.7860100e-01
  -8.5922200e-01
  -8.5022000e-01
  -8.5617100e-01
  -8.5083000e-01
  -8.3313000e-01
  -8.3786000e-01
  -8.3145100e-01
  -8.5250900e-01
  -8.4701500e-01
  -8.3572400e-01
  -8.5311900e-01
  -8.2321200e-01
  -8.1909200e-01
  -8.1329300e-01
  -8.5998500e-01
  -8.5510300e-01
  -8.5662800e-01
  -8.7844800e-01
  -8.9096100e-01
  -8.8363600e-01
  -9.0240500e-01
  -8.9126600e-01
  -8.8104200e-01
  -8.6547900e-01
  -8.9019800e-01
  -8.9843700e-01
  -9.1140700e-01
  -9.2239400e-01
  -9.3566900e-01
  -9.6237200e-01
  -9.8037700e-01
  -9.9288900e-01
  -1.0429380e+00
  -1.0887150e+00
  -1.0914610e+00
  -1.1273190e+00
  -1.1590580e+00
  -1.1477660e+00
  -1.2060550e+00
  -1.1941530e+00
  -1.2117000e+00
  -1.2794490e+00
  -1.2692260e+00
  -1.3026430e+00
  -1.3072200e+00
  -1.3447570e+00
  -1.3362120e+00
  -1.3577270e+00
  -1.3911440e+00
  -1.4509580e+00
  -1.4739990e+00
  -1.4396670e+00
  -1.5405270e+00
  -1.5525820e+00
  -1.5390010e+00
  -1.5394590e+00
  -1.5925600e+00
  -1.6119380e+00
  -1.6481020e+00
  -1.6986080e+00
  -1.6859440e+00
  -1.6842650e+00
  -1.6571040e+00
  -1.5936280e+00
  -1.6415410e+00
  -1.6835020e+00
  -1.7211910e+00
  -1.7405700e+00
  -1.7753600e+00
  -1.7671200e+00
  -1.8049620e+00
  -1.8431090e+00
  -1.7980960e+00
  -1.7646790e+00
  -1.7417910e+00
  -1.7388920e+00
  -1.7198180e+00
  -1.7434690e+00
  -1.7533870e+00
  -1.7626950e+00
  -1.8061830e+00
  -1.7935180e+00
  -1.7852780e+00
  -1.8165590e+00
  -1.8206790e+00
  -1.8521120e+00
  -1.8617250e+00
  -1.8992610e+00
  -1.9160460e+00
  -1.9247440e+00
  -1.9206240e+00
  -1.9145200e+00
  -1.9566350e+00
  -2.0095830e+00
  -1.9677730e+00
  -1.9371030e+00
  -1.9364930e+00
  -1.9757080e+00
  -1.9934080e+00
  -1.9567870e+00
  -1.9100950e+00
  -1.8588260e+00
  -1.8254090e+00
  -1.8037410e+00
  -1.8058780e+00
  -1.7834470e+00
  -1.8041990e+00
  -1.8107600e+00
  -1.8118290e+00
  -1.8019100e+00
  -1.7863460e+00
  -1.8066410e+00
  -1.8400570e+00
  -1.8629460e+00
  -1.8981930e+00
  -1.9303890e+00
  -1.9361880e+00
  -1.9172670e+00
  -1.8629460e+00
  -1.8374630e+00
  -1.8298340e+00
  -1.8479920e+00
  -1.8460080e+00
  -1.8487550e+00
  -1.8908690e+00
  -1.9062810e+00
  -1.9271850e+00
  -1.9541930e+00
  -1.9912720e+00
  -2.0045470e+00
  -1.9906620e+00
  -1.9790650e+00
  -2.0295720e+00
  -2.0620730e+00
  -2.0446780e+00
  -2.0045470e+00
  -1.9245910e+00
  -1.8643190e+00
  -1.8492130e+00
  -1.8617250e+00
  -1.8733220e+00
  -1.9020080e+00
  -1.9267270e+00
  -1.9569400e+00
  -1.9473270e+00
  -1.9178770e+00
  -1.9279480e+00
  -1.9078060e+00
  -1.9441220e+00
  -1.9746400e+00
  -2.0005800e+00
  -1.9984440e+00
  -1.9529720e+00
  -1.9685360e+00
  -2.0245360e+00
  -2.0140080e+00
  -1.9743350e+00
  -2.0260620e+00
  -2.0869450e+00
  -2.0161440e+00
  -1.9609070e+00
  -1.9804380e+00
  -1.9648740e+00
  -1.9055180e+00
  -1.9088750e+00
  -1.8977360e+00
  -1.8893430e+00
  -1.8965150e+00
  -1.9334410e+00
  -1.9818120e+00
  -1.9581600e+00
  -1.9410710e+00
  -1.9163510e+00
  -1.9050600e+00
  -1.9651790e+00
  -2.0352170e+00
  -2.0326230e+00
  -1.9723510e+00
  -1.9953920e+00
  -2.0819090e+00
  -2.1372990e+00
  -2.0491030e+00
  -2.0542910e+00
  -2.0994570e+00
  -2.0555110e+00
  -1.9723510e+00
  -1.9310000e+00
  -1.8811040e+00
  -1.8771360e+00
  -1.9038390e+00
  -1.8876650e+00
  -1.8960570e+00
  -1.8742370e+00
  -1.8945310e+00
  -1.8783570e+00
  -1.8394470e+00
  -1.8620300e+00
  -1.9129940e+00
  -1.9590760e+00
  -1.9723510e+00
  -1.9595340e+00
  -1.9389340e+00
  -1.9265750e+00
  -1.9238280e+00
  -1.9406130e+00
  -2.0074460e+00
  -1.9903560e+00
  -1.9380190e+00
  -1.9679260e+00
  -1.9831850e+00
  -1.9956970e+00
  -1.9790650e+00
  -1.9184880e+00
  -1.8858340e+00
  -1.9001770e+00
  -1.9175720e+00
  -1.9406130e+00
  -1.9624330e+00
  -1.9721980e+00
  -1.9395450e+00
  -1.9462590e+00
  -1.9920350e+00
  -2.0471190e+00
  -2.0329280e+00
  -1.9888310e+00
  -2.0631410e+00
  -2.0843510e+00
  -2.0474240e+00
  -2.0475770e+00
  -2.1165470e+00
  -2.0472720e+00
  -2.0025630e+00
  -2.0611570e+00
  -1.9728090e+00
  -1.9137570e+00
  -1.9239810e+00
  -1.9444270e+00
  -1.9798280e+00
  -1.9558720e+00
  -1.9035340e+00
  -1.8511960e+00
  -1.8939210e+00
  -1.8968200e+00
  -1.9079590e+00
  -1.9381710e+00
  -2.0030210e+00
  -1.9871520e+00
  -1.9551090e+00
  -1.9596860e+00
  -1.9955440e+00
  -1.9952390e+00
  -2.0115660e+00
  -1.9281010e+00
  -1.9331360e+00
  -1.9868470e+00
  -2.0332340e+00
  -2.0191960e+00
  -1.9844060e+00
  -1.9786070e+00
  -2.0454410e+00
  -2.0578000e+00
  -2.0265200e+00
  -2.0327760e+00
  -2.0880130e+00
  -2.0561220e+00
  -2.0091250e+00
  -2.0574950e+00
  -1.9937130e+00
  -1.9035340e+00
  -1.9793700e+00
  -2.0146180e+00
  -2.0085140e+00
  -2.0117190e+00
  -2.0475770e+00
  -1.9461060e+00
  -1.9920350e+00
  -2.0161440e+00
  -1.9438170e+00
  -2.0144650e+00
  -2.0260620e+00
  -2.0536800e+00
  -2.0411680e+00
  -2.0156860e+00
  -2.0520020e+00
  -2.0286560e+00
  -2.0553590e+00
  -2.0274350e+00
  -1.9729610e+00
  -1.9371030e+00
  -2.0213320e+00
  -1.9860840e+00
  -1.9764710e+00
  -1.9775390e+00
  -1.9380190e+00
  -2.0184330e+00
  -1.9509890e+00
  -2.0277400e+00
  -2.0291140e+00
  -1.9883730e+00
  -2.0347600e+00
  -2.0008850e+00
  -2.0394900e+00
  -2.0524600e+00
  -1.9781490e+00
  -2.0549010e+00
  -2.0217900e+00
  -2.0155330e+00
  -2.0564270e+00
  -2.0486450e+00
  -2.0063780e+00
  -2.0597840e+00
  -2.0249940e+00
  -2.0222470e+00
  -2.0849610e+00
  -2.0462040e+00
  -2.1008300e+00
  -2.0796200e+00
  -2.0362850e+00
  -2.1218870e+00
  -2.1064760e+00
  -2.0834350e+00
  -2.1456910e+00
  -2.0591740e+00
  -2.0608520e+00
  -2.0761110e+00
  -2.0283510e+00
  -2.0585630e+00
  -1.9726560e+00
  -1.9340520e+00
  -1.8930050e+00
  -1.9807430e+00
  -1.9464110e+00
  -2.0410160e+00
  -1.9889830e+00
  -2.0870970e+00
  -1.9995120e+00
  -2.0933530e+00
  -2.0175170e+00
  -2.0837400e+00
  -2.0178220e+00
  -2.0027160e+00
  -2.0648190e+00
  -2.0111080e+00
  -2.0596310e+00
  -2.0716860e+00
  -1.9688420e+00
  -1.9990540e+00
  -2.0915220e+00
  -2.0835880e+00
  -2.0170590e+00
  -2.0397950e+00
  -2.0785520e+00
  -2.1112060e+00
  -2.0658870e+00
  -2.0481870e+00
  -2.0217900e+00
  -2.0689390e+00
  -2.1127320e+00
  -2.0884700e+00
  -2.0655820e+00
  -2.0683290e+00
  -2.0933530e+00
  -2.1472170e+00
  -2.1528630e+00
  -2.0872500e+00
  -2.0405580e+00
  -2.0193480e+00
  -2.0272830e+00
  -2.0938110e+00
  -2.1267700e+00
  -2.1400450e+00
  -2.1110530e+00
  -2.0533750e+00
  -2.1153260e+00
  -2.1655270e+00
  -2.1841430e+00
  -2.1034240e+00
  -2.1325680e+00
  -2.1664430e+00
  -2.1627810e+00
  -2.1360780e+00
  -2.1032710e+00
  -2.1295170e+00
  -2.1269230e+00
  -2.1015930e+00
  -2.1070860e+00
  -2.0832820e+00
  -2.0437620e+00
  -1.9947810e+00
  -2.0207210e+00
  -2.0831300e+00
  -2.1249390e+00
  -2.1376040e+00
  -2.1081540e+00
  -2.0500180e+00
  -2.0130920e+00
  -1.9714360e+00
  -1.9534300e+00
  -1.9905090e+00
  -2.0260620e+00
  -2.0367430e+00
  -2.0777890e+00
  -2.0832820e+00
  -2.0690920e+00
  -2.0495610e+00
  -2.0449830e+00
  -2.0449830e+00
  -2.0643620e+00
  -2.0895390e+00
  -2.1191410e+00
  -2.0832820e+00
  -2.0454410e+00
  -2.1067810e+00
  -2.0892330e+00
  -2.0240780e+00
  -2.0622250e+00
  -2.0735170e+00
  -2.0735170e+00
  -2.0736690e+00
  -2.1087650e+00
  -2.0805360e+00
  -2.0971680e+00
  -2.1411130e+00
  -2.1519470e+00
  -2.1598820e+00
  -2.1463010e+00
  -2.1275330e+00
  -2.1072390e+00
  -2.1327210e+00
  -2.1496580e+00
  -2.1446230e+00
  -2.1063230e+00
  -2.1011350e+00
  -2.0886230e+00
  -2.0903020e+00
  -2.0790100e+00
  -2.0654300e+00
  -2.0933530e+00
  -2.1057130e+00
  -2.0686340e+00
  -2.0599370e+00
  -2.1041870e+00
  -2.0907590e+00
  -2.0695500e+00
  -2.1038820e+00
  -2.1188350e+00
  -2.1084590e+00
  -2.0739750e+00
  -2.0835880e+00
  -2.0825200e+00
  -2.0742800e+00
  -2.1148680e+00
  -2.1078490e+00
  -2.0487980e+00
  -2.0837400e+00
  -2.1083070e+00
  -2.1029660e+00
  -2.1011350e+00
  -2.1041870e+00
  -2.1449280e+00
  -2.1667480e+00
  -2.1307370e+00
  -2.1051030e+00
  -2.1868900e+00
  -2.1224980e+00
  -2.1966550e+00
  -2.2009280e+00
  -2.1252440e+00
  -2.0967100e+00
  -2.1078490e+00
  -2.1171570e+00
  -2.0787050e+00
  -2.0935060e+00
  -2.1113590e+00
  -2.1134950e+00
  -2.1231080e+00
  -2.1168520e+00
  -2.1173100e+00
  -2.1195980e+00
  -2.1357730e+00
  -2.1339420e+00
  -2.1347050e+00
  -2.1646120e+00
  -2.1141050e+00
  -2.0700070e+00
  -2.1029660e+00
  -2.0912170e+00
  -2.0564270e+00
  -2.0610050e+00
  -2.1331790e+00
  -2.1580510e+00
  -2.0819090e+00
  -2.1142580e+00
  -2.1525570e+00
  -2.0967100e+00
  -2.1113590e+00
  -2.1682740e+00
  -2.1412660e+00
  -2.0767210e+00
  -2.1043400e+00
  -2.1517940e+00
  -2.1136470e+00
  -2.1136470e+00
  -2.1710210e+00
  -2.1412660e+00
  -2.0925900e+00
  -2.1017460e+00
  -2.1322630e+00
  -2.1025090e+00
  -2.0449830e+00
  -2.1147160e+00
  -2.1325680e+00
  -2.0887760e+00
  -2.0986940e+00
  -2.1459960e+00
  -2.0959470e+00
  -2.0829770e+00
  -2.1592710e+00
  -2.1183780e+00
  -2.0838930e+00
  -2.1369930e+00
  -2.0826720e+00
  -2.0591740e+00
  -2.1353150e+00
  -2.1086120e+00
  -2.0863340e+00
  -2.1481320e+00
  -2.1353150e+00
  -2.0629880e+00
  -2.1464540e+00
  -2.1461490e+00
  -2.1000670e+00
  -2.1559140e+00
  -2.0828250e+00
  -2.1517940e+00
  -2.1463010e+00
  -2.0788570e+00
  -2.1008300e+00
  -2.0355220e+00
  -2.0376590e+00
  -2.1391300e+00
  -2.0944210e+00
  -2.0863340e+00
  -2.1406560e+00
  -2.0765690e+00
  -2.1171570e+00
  -2.1246340e+00
  -2.0491030e+00
  -2.0942690e+00
  -2.1269230e+00
  -2.0402530e+00
  -2.0719910e+00
  -2.0889280e+00
  -2.0333860e+00
  -2.0169070e+00
  -2.0718380e+00
  -2.0179750e+00
  -2.0083620e+00
  -2.0466610e+00
  -1.9664000e+00
  -1.9325260e+00
  -2.0286560e+00
  -2.0083620e+00
  -1.9511410e+00
  -2.0231630e+00
  -2.0196530e+00
  -1.9035340e+00
  -1.8476870e+00
  -1.8629460e+00
  -1.9032290e+00
  -1.8859860e+00
  -1.8640140e+00
  -1.8479920e+00
  -1.8167110e+00
  -1.8116760e+00
  -1.8087770e+00
  -1.8345640e+00
  -1.8309020e+00
  -1.8153380e+00
  -1.7767330e+00
  -1.7311100e+00
  -1.7253110e+00
  -1.6954040e+00
  -1.6711430e+00
  -1.6581730e+00
  -1.6438290e+00
  -1.6578670e+00
  -1.6426090e+00
  -1.6452030e+00
  -1.6534420e+00
  -1.6372680e+00
  -1.6571040e+00
  -1.6741940e+00
  -1.6683960e+00
  -1.6679380e+00
  -1.6513060e+00
  -1.6406250e+00
  -1.6401670e+00
  -1.6406250e+00
  -1.6206360e+00
  -1.6423030e+00
  -1.6777040e+00
  -1.6778560e+00
  -1.6607670e+00
  -1.6726680e+00
  -1.6827390e+00
  -1.7059330e+00
  -1.7150880e+00
  -1.7228700e+00
  -1.6880800e+00
  -1.6719060e+00
  -1.6522220e+00
  -1.6333010e+00
  -1.6572570e+00
  -1.6999820e+00
  -1.7251590e+00
  -1.7257690e+00
  -1.7256160e+00
  -1.7611690e+00
  -1.7376710e+00
  -1.6918950e+00
  -1.7207340e+00
  -1.7669680e+00
  -1.7698670e+00
  -1.7129520e+00
  -1.7140200e+00
  -1.7253110e+00
  -1.7839050e+00
  -1.7724610e+00
  -1.7546080e+00
  -1.8148800e+00
  -1.8168640e+00
  -1.8292240e+00
  -1.9093320e+00
  -1.8428040e+00
  -1.9540410e+00
  -1.8244930e+00
  -1.8641660e+00
  -1.8138120e+00
  -1.9105530e+00
  -1.8875120e+00
  -1.9268800e+00
  -1.9703670e+00
  -1.9187930e+00
  -1.9783020e+00
  -1.9921870e+00
  -1.9281010e+00
  -1.9973750e+00
  -2.0631410e+00
  -2.0686340e+00
  -2.0680240e+00
  -2.0394900e+00
  -2.0104980e+00
  -2.0333860e+00
  -2.0391850e+00
  -2.0423890e+00
  -2.0222470e+00
  -2.0460510e+00
  -2.0452880e+00
  -2.0195010e+00
  -2.0066830e+00
  -1.9963070e+00
  -2.0121770e+00
  -2.0077510e+00
  -1.9944760e+00
  -2.0127870e+00
  -2.0211790e+00
  -1.9847110e+00
  -2.0193480e+00
  -2.0048520e+00
  -1.9735720e+00
  -1.9726560e+00
  -1.9882200e+00
  -1.9932560e+00
  -1.9732670e+00
  -1.9412230e+00
  -1.9300840e+00
  -1.9348140e+00
  -1.9650270e+00
  -1.9441220e+00
  -1.9819640e+00
  -2.0031740e+00
  -1.9914250e+00
  -1.9535830e+00
  -1.9725040e+00
  -1.9789120e+00
  -1.9506840e+00
  -1.9654850e+00
  -1.9493100e+00
  -1.9810490e+00
  -1.9477840e+00
  -1.9596860e+00
  -1.9587710e+00
  -1.9342040e+00
  -1.9244380e+00
  -1.9184880e+00
  -1.8917850e+00
  -1.8748470e+00
  -1.8838500e+00
  -1.8670650e+00
  -1.8414310e+00
  -1.8222050e+00
  -1.7378230e+00
  -1.7259220e+00
  -1.7387390e+00
  -1.6412350e+00
  -1.6665650e+00
  -1.5936280e+00
  -1.5309140e+00
  -1.4401250e+00
  -1.4373780e+00
  -1.4245610e+00
  -1.3880920e+00
  -1.3392640e+00
  -1.2840270e+00
  -1.2408450e+00
  -1.1729430e+00
  -1.0638430e+00
  -9.3994100e-01
  -8.5632300e-01
  -7.0709200e-01
  -5.0140400e-01
  -3.5644500e-01
  -1.7105100e-01
   3.9062000e-02
   2.4307300e-01
   5.1940900e-01
   7.0892300e-01
   8.6792000e-01
   1.0739140e+00
   1.2626650e+00
   1.4869690e+00
   1.6545100e+00
   1.7846680e+00
   1.8400570e+00
   1.7385860e+00
   1.6175840e+00
   1.1602780e+00
   6.6375700e-01
   2.9754600e-01
  -1.5258800e-01
  -5.5831900e-01
  -9.0820300e-01
  -1.1253360e+00
  -1.2886050e+00
  -1.4361570e+00
  -1.4814760e+00
  -1.4328000e+00
  -1.4289860e+00
  -1.3616940e+00
  -1.4062500e+00
  -1.4445500e+00
  -1.5321350e+00
  -1.5335080e+00
  -1.6123960e+00
  -1.7417910e+00
  -1.8240360e+00
  -1.8923950e+00
  -1.9682310e+00
  -2.0547490e+00
  -2.0690920e+00
  -2.0378110e+00
  -2.0092770e+00
  -2.0533750e+00
  -2.0538330e+00
  -2.0344540e+00
  -2.0504760e+00
  -2.0005800e+00
  -1.9384770e+00
  -1.9142150e+00
  -1.8875120e+00
  -1.8620300e+00
  -1.7781070e+00
  -1.7047120e+00
  -1.7311100e+00
  -1.7532350e+00
  -1.7115780e+00
  -1.6947940e+00
  -1.7428590e+00
  -1.7092900e+00
  -1.6947940e+00
  -1.7547610e+00
  -1.7565920e+00
  -1.7048650e+00
  -1.6893010e+00
  -1.7256160e+00
  -1.7018130e+00
  -1.6755680e+00
  -1.6917420e+00
  -1.7002870e+00
  -1.6583250e+00
  -1.7070010e+00
  -1.7088320e+00
  -1.6665650e+00
  -1.6941830e+00
  -1.7254640e+00
  -1.6853330e+00
  -1.6970830e+00
  -1.7179870e+00
  -1.6534420e+00
  -1.6671750e+00
  -1.6893010e+00
  -1.6786190e+00
  -1.6833500e+00
  -1.6638180e+00
  -1.6606140e+00
  -1.7002870e+00
  -1.6722110e+00
  -1.6650390e+00
  -1.6931150e+00
  -1.6413880e+00
  -1.6389470e+00
  -1.6409300e+00
  -1.6229250e+00
  -1.6947940e+00
  -1.6950990e+00
  -1.6441350e+00
  -1.6381840e+00
  -1.6239930e+00
  -1.6294860e+00
  -1.6299440e+00
  -1.6242980e+00
  -1.6185000e+00
  -1.5898130e+00
  -1.5850830e+00
  -1.6061400e+00
  -1.5985110e+00
  -1.5716550e+00
  -1.6307070e+00
  -1.6220090e+00
  -1.6099550e+00
  -1.6120910e+00
  -1.6044620e+00
  -1.6120910e+00
  -1.6131590e+00
  -1.5834050e+00
  -1.5950010e+00
  -1.5733340e+00
  -1.5530400e+00
  -1.5464780e+00
  -1.5458680e+00
  -1.5385440e+00
  -1.5313720e+00
  -1.5599060e+00
  -1.5461730e+00
  -1.5718080e+00
  -1.5888980e+00
  -1.5710450e+00
  -1.5351870e+00
  -1.5458680e+00
  -1.5200810e+00
  -1.5344240e+00
  -1.5205380e+00
  -1.5171810e+00
  -1.5161130e+00
  -1.5295410e+00
  -1.5133670e+00
  -1.5277100e+00
  -1.5153500e+00
  -1.5539550e+00
  -1.4863590e+00
  -1.5274050e+00
  -1.4796450e+00
  -1.4990230e+00
  -1.4759830e+00
  -1.5194700e+00
  -1.4988710e+00
  -1.5075680e+00
  -1.4782710e+00
  -1.4247130e+00
  -1.4698790e+00
  -1.4329530e+00
  -1.4764400e+00
  -1.4543150e+00
  -1.4880370e+00
  -1.4782710e+00
  -1.4875790e+00
  -1.4591980e+00
  -1.4906310e+00
  -1.4573670e+00
  -1.4233400e+00
  -1.4535520e+00
  -1.4590450e+00
  -1.4494320e+00
  -1.4520260e+00
  -1.4584350e+00
  -1.4529420e+00
  -1.4680480e+00
  -1.4164730e+00
  -1.3920590e+00
  -1.4062500e+00
  -1.3963320e+00
  -1.3722230e+00
  -1.3905330e+00
  -1.3862610e+00
  -1.3850400e+00
  -1.3789370e+00
  -1.3793950e+00
  -1.3713070e+00
  -1.3697810e+00
  -1.3835140e+00
  -1.3665770e+00
  -1.3357540e+00
  -1.3203430e+00
  -1.3079830e+00
  -1.2969970e+00
  -1.3073730e+00
  -1.3191220e+00
  -1.3172910e+00
  -1.3131710e+00
  -1.2841800e+00
  -1.2733460e+00
  -1.2730410e+00
  -1.2666320e+00
  -1.2736510e+00
  -1.2724300e+00
  -1.2687680e+00
  -1.2651060e+00
  -1.2725830e+00
  -1.2480160e+00
  -1.2464900e+00
  -1.2513730e+00
  -1.2420650e+00
  -1.2286380e+00
  -1.2091060e+00
  -1.1903380e+00
  -1.1549380e+00
  -1.1763000e+00
  -1.2055970e+00
  -1.1662290e+00
  -1.1462400e+00
  -1.1657710e+00
  -1.1221310e+00
  -1.0896300e+00
  -1.1036680e+00
  -1.0931400e+00
  -1.1051940e+00
  -1.1199950e+00
  -1.0466000e+00
  -1.0252380e+00
  -9.8587000e-01
  -1.0031130e+00
  -9.8678600e-01
  -9.8861700e-01
  -9.7732500e-01
  -9.9655200e-01
  -9.7000100e-01
  -9.9212600e-01
  -9.5657300e-01
  -9.5886200e-01
  -9.4955400e-01
  -9.4162000e-01
  -9.3017600e-01
  -8.9553800e-01
  -8.5250900e-01
  -8.2397500e-01
  -8.2321200e-01
  -8.3496100e-01
  -8.0886800e-01
  -8.0169700e-01
  -8.0200200e-01
  -8.1131000e-01
  -8.3297700e-01
  -7.9269400e-01
  -7.7972400e-01
  -7.8231800e-01
  -7.4890100e-01
  -7.3745700e-01
  -7.2494500e-01
  -7.0953400e-01
  -7.0495600e-01
  -6.9442700e-01
  -6.8771400e-01
  -6.3766500e-01
  -6.6574100e-01
  -6.5155000e-01
  -6.7535400e-01
  -6.2576300e-01
  -6.3644400e-01
  -6.4361600e-01
  -6.1767600e-01
  -6.8176300e-01
  -6.1935400e-01
  -6.6864000e-01
  -6.2423700e-01
  -6.4224200e-01
  -6.4773600e-01
  -6.0318000e-01
  -6.5490700e-01
  -6.1264000e-01
  -6.3507100e-01
  -6.5063500e-01
  -6.1798100e-01
  -6.5429700e-01
  -6.3995400e-01
  -6.9625900e-01
  -6.8893400e-01
  -7.2952300e-01
  -7.5119000e-01
  -7.6293900e-01
  -7.6400800e-01
  -8.1481900e-01
  -8.0062900e-01
  -8.2641600e-01
  -8.2489000e-01
  -8.7249800e-01
  -9.3856800e-01
  -9.5047000e-01
  -9.5016500e-01
  -9.2926000e-01
  -9.8068200e-01
  -1.0275270e+00
  -1.0462950e+00
  -1.0754390e+00
  -1.1026000e+00
  -1.1279300e+00
  -1.1633300e+00
  -1.1897280e+00
  -1.2107850e+00
  -1.2184140e+00
  -1.2379460e+00
  -1.2107850e+00
  -1.2622070e+00
  -1.2953190e+00
  -1.3317870e+00
  -1.3418580e+00
  -1.3401790e+00
  -1.3574220e+00
  -1.3528440e+00
  -1.3937380e+00
  -1.4018250e+00
  -1.4494320e+00
  -1.4855960e+00
  -1.4642330e+00
  -1.5007020e+00
  -1.5122990e+00
  -1.4888000e+00
  -1.4979550e+00
  -1.5200810e+00
  -1.5151980e+00
  -1.5704350e+00
  -1.5617370e+00
  -1.5359500e+00
  -1.5844730e+00
  -1.5791320e+00
  -1.6174320e+00
  -1.6165160e+00
  -1.6381840e+00
  -1.6482540e+00
  -1.6288760e+00
  -1.6690060e+00
  -1.6535950e+00
  -1.6499330e+00
  -1.6442870e+00
  -1.6616820e+00
  -1.6236880e+00
  -1.6442870e+00
  -1.6406250e+00
  -1.6589360e+00
  -1.6493230e+00
  -1.6130070e+00
  -1.6355900e+00
  -1.6462710e+00
  -1.7312620e+00
  -1.6767880e+00
  -1.6966250e+00
  -1.6571040e+00
  -1.6749570e+00
  -1.6531370e+00
  -1.6735840e+00
  -1.6415410e+00
  -1.6680910e+00
  -1.6317750e+00
  -1.6703800e+00
  -1.6371150e+00
  -1.6502380e+00
  -1.6603090e+00
  -1.6601560e+00
  -1.6986080e+00
  -1.6636660e+00
  -1.7199710e+00
  -1.6618350e+00
  -1.7018130e+00
  -1.6763310e+00
  -1.6870120e+00
  -1.6561890e+00
  -1.7013550e+00
  -1.6893010e+00
  -1.7036440e+00
  -1.6741940e+00
  -1.6535950e+00
  -1.6389470e+00
  -1.6885380e+00
  -1.6426090e+00
  -1.6792300e+00
  -1.6505430e+00
  -1.6810610e+00
  -1.6775510e+00
  -1.6606140e+00
  -1.6911320e+00
  -1.6676330e+00
  -1.7076110e+00
  -1.6802980e+00
  -1.7127990e+00
  -1.6677860e+00
  -1.6781620e+00
  -1.6539000e+00
  -1.6659550e+00
  -1.6706850e+00
  -1.6566470e+00
  -1.6714480e+00
  -1.6607670e+00
  -1.6877750e+00
  -1.6445920e+00
  -1.6841130e+00
  -1.6944890e+00
  -1.7112730e+00
  -1.6828920e+00
  -1.6639710e+00
  -1.6467290e+00
  -1.6387940e+00
  -1.6427610e+00
  -1.6287230e+00
  -1.6609190e+00
  -1.6389470e+00
  -1.6450500e+00
  -1.6354370e+00
  -1.6741940e+00
  -1.6314700e+00
  -1.6740420e+00
  -1.6638180e+00
  -1.6635130e+00
  -1.6751100e+00
  -1.6769410e+00
  -1.6822810e+00
  -1.6488650e+00
  -1.6596980e+00
  -1.6651920e+00
  -1.6423030e+00
  -1.6729740e+00
  -1.6325380e+00
  -1.6874690e+00
  -1.6758730e+00
  -1.6828920e+00
  -1.6546630e+00
  -1.6561890e+00
  -1.6743470e+00
  -1.6810610e+00
  -1.6957090e+00
  -1.6717530e+00
  -1.6804500e+00
  -1.6464230e+00
  -1.6767880e+00
  -1.6398620e+00
  -1.6383360e+00
  -1.6729740e+00
  -1.6523740e+00
  -1.6618350e+00
  -1.6299440e+00
  -1.6670230e+00
  -1.6127010e+00
  -1.6670230e+00
  -1.6732790e+00
  -1.6767880e+00
  -1.6712950e+00
  -1.6531370e+00
  -1.6725160e+00
  -1.6450500e+00
  -1.6540530e+00
  -1.6297910e+00
  -1.6801450e+00
  -1.6725160e+00
  -1.6537480e+00
  -1.6578670e+00
  -1.6288760e+00
  -1.6654970e+00
  -1.6453550e+00
  -1.6603090e+00
  -1.6415410e+00
  -1.6850280e+00
  -1.6873170e+00
  -1.6641240e+00
  -1.6999820e+00
  -1.6885380e+00
  -1.6734310e+00
  -1.6383360e+00
  -1.6542050e+00
  -1.6239930e+00
  -1.6311650e+00
  -1.6426090e+00
  -1.6439820e+00
  -1.6543580e+00
  -1.6265870e+00
  -1.6471860e+00
  -1.6218570e+00
  -1.6247560e+00
  -1.6619870e+00
  -1.6503910e+00
  -1.6566470e+00
  -1.6270450e+00
  -1.6700740e+00
  -1.6622920e+00
  -1.6398620e+00
  -1.6435240e+00
  -1.6160580e+00
  -1.6368100e+00
  -1.6236880e+00
  -1.6511540e+00
  -1.6221620e+00
  -1.6210940e+00
  -1.6656490e+00
  -1.6601560e+00
  -1.6806030e+00
  -1.6395570e+00
  -1.6813660e+00
  -1.6140750e+00
  -1.6400150e+00
  -1.6394040e+00
  -1.6725160e+00
  -1.6340640e+00
  -1.6540530e+00
  -1.6424560e+00
  -1.6679380e+00
  -1.6259770e+00
  -1.6514590e+00
  -1.6589360e+00
  -1.6154480e+00
  -1.6531370e+00
  -1.6223140e+00
  -1.6548160e+00
  -1.6548160e+00
  -1.6542050e+00
  -1.6566470e+00
  -1.6307070e+00
  -1.6792300e+00
  -1.6603090e+00
  -1.6136170e+00
  -1.6716000e+00
  -1.6506960e+00
  -1.6188050e+00
  -1.6336060e+00
  -1.6661070e+00
  -1.6691590e+00
  -1.6389470e+00
  -1.6194150e+00
  -1.6558840e+00
  -1.6467290e+00
  -1.6236880e+00
  -1.6015620e+00
  -1.6346740e+00
  -1.6737370e+00
  -1.6441350e+00
  -1.6113280e+00
  -1.6160580e+00
  -1.6174320e+00
  -1.6499330e+00
  -1.6430660e+00
  -1.6297910e+00
  -1.6116330e+00
  -1.6273500e+00
  -1.6552730e+00
  -1.6592410e+00
  -1.6461180e+00
  -1.6040040e+00
  -1.6160580e+00
  -1.6279600e+00
  -1.5867610e+00
  -1.6429140e+00
  -1.6886900e+00
  -1.6615300e+00
  -1.6198730e+00
  -1.6186520e+00
  -1.6746520e+00
  -1.6304020e+00
  -1.5934750e+00
  -1.6207890e+00
  -1.6253660e+00
  -1.6151430e+00
  -1.6343690e+00
  -1.6468810e+00
  -1.6256710e+00
  -1.6204830e+00
  -1.6574100e+00
  -1.6264340e+00
  -1.6139220e+00
  -1.6381840e+00
  -1.5907290e+00
  -1.6259770e+00
  -1.5956120e+00
  -1.5890500e+00
  -1.6366580e+00
  -1.6110230e+00
  -1.6151430e+00
  -1.6065980e+00
  -1.6294860e+00
  -1.6035460e+00
  -1.6104130e+00
  -1.6285710e+00
  -1.5995790e+00
  -1.6419980e+00
  -1.6276550e+00
  -1.6072080e+00
  -1.6055300e+00
  -1.6018680e+00
  -1.5809630e+00
  -1.5812680e+00
  -1.5950010e+00
  -1.6259770e+00
  -1.6160580e+00
  -1.5931700e+00
  -1.6058350e+00
  -1.6122440e+00
  -1.6473390e+00
  -1.6242980e+00
  -1.6218570e+00
  -1.6116330e+00
  -1.5959170e+00
  -1.6294860e+00
  -1.6008000e+00
  -1.5710450e+00
  -1.5754700e+00
  -1.6055300e+00
  -1.5768430e+00
  -1.5954590e+00
  -1.6026310e+00
  -1.6189580e+00
  -1.6120910e+00
  -1.6232300e+00
  -1.6113280e+00
  -1.6352840e+00
  -1.6435240e+00
  -1.6290280e+00
  -1.5736390e+00
  -1.5905760e+00
  -1.6197200e+00
  -1.6180420e+00
  -1.6389470e+00
  -1.6119380e+00
  -1.6009520e+00
  -1.5507510e+00
  -1.5737920e+00
  -1.5864560e+00
  -1.5921020e+00
  -1.6050720e+00
  -1.5974430e+00
  -1.6137700e+00
  -1.5802000e+00
  -1.5852360e+00
  -1.5934750e+00
  -1.5899660e+00
  -1.5867610e+00
  -1.5885930e+00
  -1.5715030e+00
  -1.5711980e+00
  -1.5901180e+00
  -1.5628050e+00
  -1.5487670e+00
  -1.5597530e+00
  -1.5681460e+00
  -1.5667720e+00
  -1.5928650e+00
  -1.5600590e+00
  -1.5577700e+00
  -1.6131590e+00
  -1.5872190e+00
  -1.6407780e+00
  -1.6394040e+00
  -1.5815730e+00
  -1.6392520e+00
  -1.6233830e+00
  -1.5742490e+00
  -1.5869140e+00
  -1.5812680e+00
  -1.5898130e+00
  -1.5940860e+00
  -1.6220090e+00
  -1.6130070e+00
  -1.6110230e+00
  -1.5774540e+00
  -1.6162110e+00
  -1.6085820e+00
  -1.6287230e+00
  -1.6108700e+00
  -1.6320800e+00
  -1.5943910e+00
  -1.5797420e+00
  -1.6009520e+00
  -1.5811160e+00
  -1.5780640e+00
  -1.5779110e+00
  -1.5721130e+00
  -1.5815730e+00
  -1.5850830e+00
  -1.5475460e+00
  -1.5661620e+00
  -1.5837100e+00
  -1.5824890e+00
  -1.6146850e+00
  -1.5994260e+00
  -1.5670780e+00
  -1.5641780e+00
  -1.5812680e+00
  -1.5748600e+00
  -1.5660100e+00
  -1.5240480e+00
  -1.5309140e+00
  -1.5600590e+00
  -1.5919490e+00
  -1.5538020e+00
  -1.5547180e+00
  -1.5693660e+00
  -1.5766910e+00
  -1.5760800e+00
  -1.5936280e+00
  -1.5783690e+00
  -1.5542600e+00
  -1.5742490e+00
  -1.5916440e+00
  -1.5856930e+00
  -1.5820310e+00
  -1.5823360e+00
  -1.5696720e+00
  -1.5412900e+00
  -1.5846250e+00
  -1.5589900e+00
  -1.5542600e+00
  -1.5806580e+00
  -1.5760800e+00
  -1.5716550e+00
  -1.5725710e+00
  -1.5992740e+00
  -1.5800480e+00
  -1.5644840e+00
  -1.5562440e+00
  -1.5480040e+00
  -1.5473940e+00
  -1.5556340e+00
  -1.5641780e+00
  -1.5745540e+00
  -1.5858460e+00
  -1.6029360e+00
  -1.5823360e+00
  -1.5586850e+00
  -1.5496830e+00
  -1.5402220e+00
  -1.5733340e+00
  -1.5878300e+00
  -1.5756230e+00
  -1.5507510e+00
  -1.5467830e+00
  -1.5716550e+00
  -1.5698240e+00
  -1.5716550e+00
  -1.5539550e+00
  -1.5670780e+00
  -1.5545650e+00
  -1.5414430e+00
  -1.5571590e+00
  -1.5754700e+00
  -1.5817260e+00
  -1.5686040e+00
  -1.5502930e+00
  -1.5533450e+00
  -1.5647890e+00
  -1.5814210e+00
  -1.6018680e+00
  -1.5602110e+00
  -1.5596010e+00
  -1.5611270e+00
  -1.5805050e+00
  -1.5275570e+00
  -1.5124510e+00
  -1.5202330e+00
  -1.5611270e+00
  -1.5679930e+00
  -1.5873720e+00
  -1.5504460e+00
  -1.5411380e+00
  -1.5104680e+00
  -1.5339660e+00
  -1.5412900e+00
  -1.5791320e+00
  -1.5528870e+00
  -1.5568540e+00
  -1.5631100e+00
  -1.5469360e+00
  -1.5258790e+00
  -1.5370180e+00
  -1.5512080e+00
  -1.5435790e+00
  -1.5238950e+00
  -1.5150450e+00
  -1.5397640e+00
  -1.5332030e+00
  -1.5336610e+00
  -1.5466310e+00
  -1.5377810e+00
  -1.5548710e+00
  -1.5290830e+00
  -1.5155030e+00
  -1.5342710e+00
  -1.5078740e+00
  -1.5281680e+00
  -1.5081790e+00
  -1.4739990e+00
  -1.5086360e+00
  -1.5162660e+00
  -1.4843750e+00
  -1.5019230e+00
  -1.4808650e+00
  -1.4797970e+00
  -1.4933780e+00
  -1.5000920e+00
  -1.4949040e+00
  -1.4970400e+00
  -1.4871220e+00
  -1.4750670e+00
  -1.4633180e+00
  -1.4350890e+00
  -1.4338680e+00
  -1.4228820e+00
  -1.4089970e+00
  -1.3685610e+00
  -1.3781740e+00
  -1.3951110e+00
  -1.3894650e+00
  -1.3751220e+00
  -1.3677980e+00
  -1.3652040e+00
  -1.3606260e+00
  -1.3548280e+00
  -1.3374330e+00
  -1.3061520e+00
  -1.3079830e+00
  -1.2957760e+00
  -1.2879940e+00
  -1.2837220e+00
  -1.2406920e+00
  -1.2583920e+00
  -1.2652590e+00
  -1.2345890e+00
  -1.1808780e+00
  -1.1912540e+00
  -1.1973570e+00
  -1.1781310e+00
  -1.1807250e+00
  -1.1732480e+00
  -1.1488340e+00
  -1.0885620e+00
  -1.1003110e+00
  -1.0751340e+00
  -1.0806270e+00
  -1.0322570e+00
  -1.0333250e+00
  -1.0102840e+00
  -1.0008240e+00
  -1.0122680e+00
  -1.0490420e+00
  -1.0467530e+00
  -1.0324100e+00
  -1.0337830e+00
  -1.0595700e+00
  -1.0704040e+00
  -1.0963440e+00
  -1.1289980e+00
  -1.1058040e+00
  -1.1068730e+00
  -1.0870360e+00
  -1.0694890e+00
  -1.0877990e+00
  -1.0939030e+00
  -1.1228940e+00
  -1.1663820e+00
  -1.1373900e+00
  -1.0961910e+00
  -1.0780330e+00
  -1.1164860e+00
  -1.1436460e+00
  -1.1721800e+00
  -1.1622620e+00
  -1.1622620e+00
  -1.1779790e+00
  -1.1563110e+00
  -1.1305240e+00
  -1.1471560e+00
  -1.1529540e+00
  -1.1666870e+00
  -1.2017820e+00
  -1.2338260e+00
  -1.2158200e+00
  -1.2702940e+00
  -1.2533570e+00
  -1.2789920e+00
  -1.3041690e+00
  -1.3021850e+00
  -1.3160710e+00
  -1.3041690e+00
  -1.3060000e+00
  -1.2986760e+00
  -1.2802120e+00
  -1.3374330e+00
  -1.3389590e+00
  -1.3687130e+00
  -1.4624020e+00
  -1.4204410e+00
  -1.4126590e+00
  -1.4529420e+00
  -1.4845280e+00
  -1.4730830e+00
  -1.4283750e+00
  -1.4318850e+00
  -1.4854430e+00
  -1.5049740e+00
  -1.5231320e+00
  -1.5419010e+00
  -1.5553280e+00
  -1.5312190e+00
  -1.4965820e+00
  -1.5217590e+00
  -1.5332030e+00
  -1.5481570e+00
  -1.5083310e+00
  -1.4903260e+00
  -1.5197750e+00
  -1.5391540e+00
  -1.5664670e+00
  -1.5609740e+00
  -1.5744020e+00
  -1.5539550e+00
  -1.5174870e+00
  -1.5159610e+00
  -1.5162660e+00
  -1.4900210e+00
  -1.5325930e+00
  -1.5464780e+00
  -1.5238950e+00
  -1.4851380e+00
  -1.4372250e+00
  -1.4990230e+00
  -1.5510560e+00
  -1.5620420e+00
  -1.5293880e+00
  -1.4968870e+00
  -1.4634700e+00
  -1.4619450e+00
  -1.4613340e+00
  -1.5132140e+00
  -1.5104680e+00
  -1.5087890e+00
  -1.5235900e+00
  -1.5226750e+00
  -1.5255740e+00
  -1.5109250e+00
  -1.5023800e+00
  -1.4962770e+00
  -1.4994810e+00
  -1.5008540e+00
  -1.4797970e+00
  -1.4935300e+00
  -1.4715580e+00
  -1.4250180e+00
  -1.4509580e+00
  -1.4430240e+00
  -1.3670350e+00
  -1.3742070e+00
  -1.3571170e+00
  -1.3127140e+00
  -1.2969970e+00
  -1.2356570e+00
  -1.1756900e+00
  -1.1177060e+00
  -1.0285950e+00
  -1.0095210e+00
  -9.9212600e-01
  -9.6832300e-01
  -9.2010500e-01
  -8.7204000e-01
  -8.6395300e-01
  -7.6873800e-01
  -6.5872200e-01
  -5.8044400e-01
  -4.6539300e-01
  -2.8015100e-01
  -1.0467500e-01
   3.9978000e-02
   1.6296400e-01
   4.5120200e-01
   6.8985000e-01
   8.7860100e-01
   1.0939030e+00
   1.2641910e+00
   1.4768980e+00
   1.6879270e+00
   1.8515010e+00
   1.9990540e+00
   2.1572880e+00
   2.2499080e+00
   2.1835330e+00
   2.0457460e+00
   1.6410830e+00
   1.1051940e+00
   6.2851000e-01
   1.6967800e-01
  -1.1978100e-01
  -4.9545300e-01
  -6.9961500e-01
  -8.3648700e-01
  -1.0049440e+00
  -1.0179140e+00
  -1.0192870e+00
  -9.7717300e-01
  -1.0000610e+00
  -9.4024700e-01
  -1.0424800e+00
  -1.0832210e+00
  -1.1724850e+00
  -1.2536620e+00
  -1.2837220e+00
  -1.3262940e+00
  -1.4225770e+00
  -1.4927670e+00
  -1.5957640e+00
  -1.6316220e+00
  -1.5867610e+00
  -1.5811160e+00
  -1.5565490e+00
  -1.5774540e+00
  -1.5585330e+00
  -1.5498350e+00
  -1.5214540e+00
  -1.5029910e+00
  -1.4828490e+00
  -1.4274600e+00
  -1.4341740e+00
  -1.3980100e+00
  -1.3333130e+00
  -1.3250730e+00
  -1.3153080e+00
  -1.2982180e+00
  -1.2980650e+00
  -1.2911990e+00
  -1.2472530e+00
  -1.2788390e+00
  -1.2657170e+00
  -1.3168330e+00
  -1.3334660e+00
  -1.3215640e+00
  -1.2954710e+00
  -1.3124080e+00
  -1.3133240e+00
  -1.3174440e+00
  -1.2739560e+00
  -1.2562560e+00
  -1.2417600e+00
  -1.2786870e+00
  -1.2973020e+00
  -1.2614440e+00
  -1.2571720e+00
  -1.2892150e+00
  -1.2577820e+00
  -1.2803650e+00
  -1.2756350e+00
  -1.2698360e+00
  -1.2590030e+00
  -1.2608340e+00
  -1.2680050e+00
  -1.2803650e+00
  -1.2893680e+00
  -1.2620540e+00
  -1.2182620e+00
  -1.2214660e+00
  -1.2492370e+00
  -1.2261960e+00
  -1.2214660e+00
  -1.2062070e+00
  -1.2069700e+00
  -1.2550350e+00
  -1.2681580e+00
  -1.2135310e+00
  -1.2417600e+00
  -1.2728880e+00
  -1.2586980e+00
  -1.2214660e+00
  -1.2170410e+00
  -1.2432860e+00
  -1.1968990e+00
  -1.1929320e+00
  -1.2020870e+00
  -1.1860660e+00
  -1.2002560e+00
  -1.2190250e+00
  -1.1982730e+00
  -1.1753850e+00
  -1.2129210e+00
  -1.2126160e+00
  -1.1932370e+00
  -1.2217710e+00
  -1.1912540e+00
  -1.1521910e+00
  -1.1756900e+00
  -1.1402890e+00
  -1.1341860e+00
  -1.1466980e+00
  -1.1186220e+00
  -1.1358640e+00
  -1.1671450e+00
  -1.1462400e+00
  -1.1308290e+00
  -1.1048890e+00
  -1.1306760e+00
  -1.1463930e+00
  -1.0913090e+00
  -1.0919190e+00
  -1.0795590e+00
  -1.0841370e+00
  -1.0926820e+00
  -1.1083980e+00
  -1.1036680e+00
  -1.0913090e+00
  -1.1109920e+00
  -1.0478210e+00
  -1.0743710e+00
  -1.0729980e+00
  -1.0899350e+00
  -1.0462950e+00
  -1.0751340e+00
  -1.0905460e+00
  -1.1030580e+00
  -1.0969540e+00
  -1.0896300e+00
  -1.1174010e+00
  -1.0696410e+00
  -1.0870360e+00
  -1.0536190e+00
  -1.0548400e+00
  -1.0156250e+00
  -1.0639950e+00
  -1.0192870e+00
  -1.0440060e+00
  -9.9197400e-01
  -1.0235600e+00
  -1.0145570e+00
  -1.0453800e+00
  -1.0159300e+00
  -1.0264590e+00
  -1.0147090e+00
  -1.0234070e+00
  -1.0180660e+00
  -9.5748900e-01
  -1.0180660e+00
  -9.7457900e-01
  -1.0006710e+00
  -9.7717300e-01
  -9.4314600e-01
  -1.0038760e+00
  -9.7747800e-01
  -1.0023500e+00
  -9.6298200e-01
  -9.5245400e-01
  -9.3032800e-01
  -9.1278100e-01
  -9.4924900e-01
  -9.6145600e-01
  -9.1903700e-01
  -9.6313500e-01
  -9.2437700e-01
  -8.8378900e-01
  -9.0362500e-01
  -9.1980000e-01
  -8.9050300e-01
  -8.7600700e-01
  -8.9065600e-01
  -8.4991500e-01
  -8.2595800e-01
  -8.9492800e-01
  -8.8745100e-01
  -8.0139200e-01
  -8.0734300e-01
  -8.6257900e-01
  -8.0307000e-01
  -7.5592000e-01
  -7.5882000e-01
  -7.9284700e-01
  -8.0368000e-01
  -7.9910300e-01
  -7.6004000e-01
  -6.9320700e-01
  -7.0114100e-01
  -7.3623700e-01
  -7.5759900e-01
  -7.2021500e-01
  -7.0755000e-01
  -6.6101100e-01
  -6.4865100e-01
  -6.2713600e-01
  -6.3949600e-01
  -6.3369800e-01
  -6.6391000e-01
  -6.6116300e-01
  -6.6131600e-01
  -6.2637300e-01
  -5.5236800e-01
  -5.3939800e-01
  -5.3772000e-01
  -5.0842300e-01
  -4.9835200e-01
  -4.9072300e-01
  -4.9285900e-01
  -4.9819900e-01
  -5.2780200e-01
  -5.4122900e-01
  -5.2337600e-01
  -4.4433600e-01
  -3.8528400e-01
  -3.9444000e-01
  -4.6752900e-01
  -4.2724600e-01
  -3.7490800e-01
  -3.8742100e-01
  -4.2190600e-01
  -3.6453200e-01
  -2.8091400e-01
  -3.5766600e-01
  -2.8930700e-01
  -2.9068000e-01
  -3.3477800e-01
  -1.8554700e-01
  -3.3279400e-01
  -2.7862500e-01
  -2.5528000e-01
  -2.7679400e-01
  -1.9943200e-01
  -2.9068000e-01
  -1.7639200e-01
  -2.7343700e-01
  -1.4129600e-01
  -2.1148700e-01
  -1.4541600e-01
  -1.7532300e-01
  -1.9378700e-01
  -1.5884400e-01
  -1.8814100e-01
  -7.9346000e-02
  -2.1179200e-01
  -9.6893000e-02
  -1.6555800e-01
  -1.8234300e-01
  -1.1352500e-01
  -2.0553600e-01
  -1.1230500e-01
  -1.7959600e-01
  -1.3549800e-01
  -1.0009800e-01
  -1.7990100e-01
  -1.0833700e-01
  -2.1606400e-01
  -1.4999400e-01
  -1.8280000e-01
  -2.0355200e-01
  -1.9989000e-01
  -2.7023300e-01
  -2.3986800e-01
  -3.2562300e-01
  -2.6214600e-01
  -3.4027100e-01
  -3.3416700e-01
  -3.4088100e-01
  -4.1870100e-01
  -3.4484900e-01
  -4.1046100e-01
  -4.6585100e-01
  -4.0069600e-01
  -4.3869000e-01
  -5.5801400e-01
  -5.9906000e-01
  -5.3894000e-01
  -5.6289700e-01
  -5.4595900e-01
  -6.1080900e-01
  -6.5658600e-01
  -6.9320700e-01
  -7.1807900e-01
  -7.2509800e-01
  -7.6995800e-01
  -7.9254200e-01
  -8.0154400e-01
  -7.9879800e-01
  -7.6995800e-01
  -7.8491200e-01
  -8.2931500e-01
  -8.2733200e-01
  -8.2611100e-01
  -8.4625200e-01
  -9.0683000e-01
  -9.4726600e-01
  -9.2804000e-01
  -9.1796900e-01
  -9.1415400e-01
  -9.4345100e-01
  -9.7503700e-01
  -9.6313500e-01
  -9.4558700e-01
  -9.8693800e-01
  -1.0102840e+00
  -9.8358200e-01
  -9.6328700e-01
  -1.0159300e+00
  -1.0217290e+00
  -9.8983800e-01
  -1.0269170e+00
  -1.0650630e+00
  -1.0330200e+00
  -1.0734560e+00
  -1.1145020e+00
  -1.0539250e+00
  -1.0914610e+00
  -1.0972600e+00
  -1.0762020e+00
  -1.0948180e+00
  -1.0650630e+00
  -1.0691830e+00
  -1.0876460e+00
  -1.0546870e+00
  -1.0969540e+00
  -1.1077880e+00
  -1.0601810e+00
  -1.1323550e+00
  -1.1085510e+00
  -1.0900880e+00
  -1.1184690e+00
  -1.0853580e+00
  -1.1703490e+00
  -1.1358640e+00
  -1.1022950e+00
  -1.1196900e+00
  -1.0672000e+00
  -1.0978700e+00
  -1.1102290e+00
  -1.0716250e+00
  -1.1285400e+00
  -1.0760500e+00
  -1.0816960e+00
  -1.1178590e+00
  -1.0807800e+00
  -1.1425780e+00
  -1.1160280e+00
  -1.1064150e+00
  -1.1329650e+00
  -1.1050420e+00
  -1.1361690e+00
  -1.1441040e+00
  -1.0939030e+00
  -1.1222840e+00
  -1.1000060e+00
  -1.0816960e+00
  -1.1224370e+00
  -1.1135860e+00
  -1.1497500e+00
  -1.1024480e+00
  -1.0713200e+00
  -1.1454770e+00
  -1.1068730e+00
  -1.1459350e+00
  -1.1445620e+00
  -1.1337280e+00
  -1.1340330e+00
  -1.1012270e+00
  -1.1392210e+00
  -1.0945130e+00
  -1.0835270e+00
  -1.1181640e+00
  -1.0893250e+00
  -1.1199950e+00
  -1.1018370e+00
  -1.0459900e+00
  -1.1251830e+00
  -1.1235050e+00
  -1.0949710e+00
  -1.1291500e+00
  -1.1306760e+00
  -1.1135860e+00
  -1.1271670e+00
  -1.1003110e+00
  -1.0998540e+00
  -1.1479190e+00
  -1.1154170e+00
  -1.1294560e+00
  -1.0897830e+00
  -1.0809330e+00
  -1.1404420e+00
  -1.1149600e+00
  -1.1318970e+00
  -1.1700440e+00
  -1.1253360e+00
  -1.1494450e+00
  -1.1341860e+00
  -1.1532590e+00
  -1.1386110e+00
  -1.0964970e+00
  -1.1166380e+00
  -1.1062620e+00
  -1.0746770e+00
  -1.0984800e+00
  -1.0845950e+00
  -1.1067200e+00
  -1.1433410e+00
  -1.0830690e+00
  -1.1192320e+00
  -1.1363220e+00
  -1.0868840e+00
  -1.1396790e+00
  -1.1247250e+00
  -1.1457820e+00
  -1.1425780e+00
  -1.1207580e+00
  -1.1419680e+00
  -1.0501100e+00
  -1.0772710e+00
  -1.0998540e+00
  -1.0481260e+00
  -1.0902400e+00
  -1.1174010e+00
  -1.0720830e+00
  -1.0862730e+00
  -1.0681150e+00
  -1.0055540e+00
  -1.0523990e+00
  -1.0963440e+00
  -1.0839840e+00
  -1.1355590e+00
  -1.1090090e+00
  -1.0911560e+00
  -1.1383060e+00
  -1.0896300e+00
  -1.0514830e+00
  -1.1100770e+00
  -1.0874940e+00
  -1.0614010e+00
  -1.1155700e+00
  -1.0774230e+00
  -1.0514830e+00
  -1.1341860e+00
  -1.1088560e+00
  -1.0746770e+00
  -1.1424260e+00
  -1.1140440e+00
  -1.1131290e+00
  -1.1448670e+00
  -1.1080930e+00
  -1.1216740e+00
  -1.1056520e+00
  -1.0668950e+00
  -1.1341860e+00
  -1.1265560e+00
  -1.1109920e+00
  -1.1190800e+00
  -1.0842900e+00
  -1.0748290e+00
  -1.1143490e+00
  -1.1004640e+00
  -1.0794070e+00
  -1.1343380e+00
  -1.1090090e+00
  -1.1151120e+00
  -1.1177060e+00
  -1.0823060e+00
  -1.1111450e+00
  -1.0609440e+00
  -1.0302730e+00
  -1.0710140e+00
  -1.0549930e+00
  -1.0415650e+00
  -1.0653690e+00
  -1.0572810e+00
  -1.0928340e+00
  -1.0697940e+00
  -1.0995480e+00
  -1.0876460e+00
  -1.0357670e+00
  -1.0989380e+00
  -1.0833740e+00
  -1.1102290e+00
  -1.1111450e+00
  -1.0894780e+00
  -1.1195370e+00
  -1.0514830e+00
  -1.1044310e+00
  -1.1053470e+00
  -1.1007690e+00
  -1.1334230e+00
  -1.1392210e+00
  -1.1213680e+00
  -1.1016850e+00
  -1.1145020e+00
  -1.0986330e+00
  -1.0806270e+00
  -1.1183170e+00
  -1.1079410e+00
  -1.0827640e+00
  -1.0888670e+00
  -1.1012270e+00
  -1.0864260e+00
  -1.0667420e+00
  -1.1152650e+00
  -1.0852050e+00
  -1.0485840e+00
  -1.0725400e+00
  -1.1169430e+00
  -1.0897830e+00
  -1.0444640e+00
  -1.0990910e+00
  -1.0943600e+00
  -1.1061100e+00
  -1.1024480e+00
  -1.1015320e+00
  -1.0632320e+00
  -1.1012270e+00
  -1.0627750e+00
  -1.0398860e+00
  -1.0871890e+00
  -1.1001590e+00
  -1.0748290e+00
  -1.1012270e+00
  -1.0821530e+00
  -1.0687260e+00
  -1.0997010e+00
  -1.0708620e+00
  -1.0844420e+00
  -1.1064150e+00
  -1.1097720e+00
  -1.1026000e+00
  -1.0586550e+00
  -1.1241150e+00
  -1.0591130e+00
  -1.0728450e+00
  -1.0479740e+00
  -1.0774230e+00
  -1.0856630e+00
  -1.0762020e+00
  -1.0464480e+00
  -1.0903930e+00
  -1.0554500e+00
  -1.1201480e+00
  -1.1015320e+00
  -1.1148070e+00
  -1.1409000e+00
  -1.1181640e+00
  -1.1167910e+00
  -1.0583500e+00
  -1.0955810e+00
  -1.1396790e+00
  -1.0813900e+00
  -1.0662840e+00
  -1.1027530e+00
  -1.0881040e+00
  -1.0581970e+00
  -1.0955810e+00
  -1.1077880e+00
  -1.0948180e+00
  -1.0565190e+00
  -1.0897830e+00
  -1.1172490e+00
  -1.0978700e+00
  -1.0784910e+00
  -1.0499570e+00
  -1.0278320e+00
  -1.0865780e+00
  -1.1364750e+00
  -1.1065670e+00
  -1.0806270e+00
  -1.0708620e+00
  -1.0803220e+00
  -1.1160280e+00
  -1.1102290e+00
  -1.0598750e+00
  -1.0334780e+00
  -1.0578920e+00
  -1.0960390e+00
  -1.1312870e+00
  -1.1215210e+00
  -1.0984800e+00
  -1.0540770e+00
  -1.1248780e+00
  -1.1418150e+00
  -1.0975650e+00
  -1.0835270e+00
  -1.0893250e+00
  -1.0813900e+00
  -1.0963440e+00
  -1.1050420e+00
  -1.0871890e+00
  -1.0830690e+00
  -1.0676570e+00
  -1.1184690e+00
  -1.1343380e+00
  -1.1119080e+00
  -1.1245730e+00
  -1.1283870e+00
  -1.1781310e+00
  -1.1473080e+00
  -1.0841370e+00
  -1.0606380e+00
  -1.0673520e+00
  -1.0803220e+00
  -1.0983280e+00
  -1.1091610e+00
  -1.0891720e+00
  -1.0498050e+00
  -1.0142520e+00
  -1.0147090e+00
  -1.0563660e+00
  -1.0874940e+00
  -1.0678100e+00
  -1.0581970e+00
  -1.0971070e+00
  -1.0694890e+00
  -1.0832210e+00
  -1.0527040e+00
  -1.0929870e+00
  -1.0737610e+00
  -1.0717770e+00
  -1.0792540e+00
  -1.0780330e+00
  -1.0752870e+00
  -1.0351560e+00
  -1.0165410e+00
  -1.0398860e+00
  -1.0455320e+00
  -1.0420230e+00
  -1.0675050e+00
  -1.0633850e+00
  -1.0520940e+00
  -1.0258480e+00
  -1.0772710e+00
  -1.0935970e+00
  -1.0662840e+00
  -1.0559080e+00
  -1.0574340e+00
  -1.0606380e+00
  -1.0664370e+00
  -1.0389710e+00
  -1.0925290e+00
  -1.0733030e+00
  -1.0784910e+00
  -1.0852050e+00
  -1.0681150e+00
  -1.0786440e+00
  -1.0478210e+00
  -1.0734560e+00
  -1.0337830e+00
  -1.0978700e+00
  -1.0568240e+00
  -1.0276790e+00
  -1.0047910e+00
  -1.0031130e+00
  -1.0449220e+00
  -1.0542300e+00
  -1.0408020e+00
  -1.0734560e+00
  -1.0446170e+00
  -1.0734560e+00
  -1.0786440e+00
  -1.0877990e+00
  -1.0591130e+00
  -1.0968020e+00
  -1.0719300e+00
  -1.0337830e+00
  -9.8434400e-01
  -1.0182190e+00
  -1.0015870e+00
  -1.0005190e+00
  -1.0603330e+00
  -1.1155700e+00
  -1.1183170e+00
  -1.0977170e+00
  -1.0665890e+00
  -1.1097720e+00
  -1.1076350e+00
  -1.0862730e+00
  -1.1036680e+00
  -1.0845950e+00
  -1.1167910e+00
  -1.0783390e+00
  -1.0371400e+00
  -1.0140990e+00
  -1.0261540e+00
  -1.0783390e+00
  -1.0908510e+00
  -1.0884090e+00
  -1.0343930e+00
  -1.0536190e+00
  -1.0777280e+00
  -1.0935970e+00
  -1.0807800e+00
  -1.0447690e+00
  -1.0549930e+00
  -1.0778810e+00
  -1.0823060e+00
  -1.0365300e+00
  -1.0757450e+00
  -1.0697940e+00
  -1.0589600e+00
  -1.0380550e+00
  -1.0615540e+00
  -1.1358640e+00
  -1.0964970e+00
  -1.0548400e+00
  -1.0777280e+00
  -1.1109920e+00
  -1.0569760e+00
  -1.0173030e+00
  -1.0516360e+00
  -1.1346440e+00
  -1.1242680e+00
  -1.0609440e+00
  -1.0527040e+00
  -1.0702510e+00
  -1.0917660e+00
  -1.0739140e+00
  -1.0176090e+00
  -1.0260010e+00
  -1.0629270e+00
  -1.0629270e+00
  -1.0044860e+00
  -9.8693800e-01
  -1.0456850e+00
  -1.0794070e+00
  -1.0697940e+00
  -1.0527040e+00
  -1.0772710e+00
  -1.0952760e+00
  -1.0652160e+00
  -1.0267640e+00
  -1.0563660e+00
  -1.0859680e+00
  -1.0552980e+00
  -1.0162350e+00
  -9.7366300e-01
  -9.9700900e-01
  -1.0748290e+00
  -1.0852050e+00
  -1.0382080e+00
  -1.0630800e+00
  -1.0763550e+00
  -1.0987850e+00
  -1.0502620e+00
  -1.0554500e+00
  -1.0523990e+00
  -1.0366820e+00
  -1.0409550e+00
  -1.0711670e+00
  -1.0655210e+00
  -9.9868800e-01
  -1.0218810e+00
  -1.0574340e+00
  -1.0105900e+00
  -9.8892200e-01
  -1.0383610e+00
  -1.0226440e+00
  -9.8815900e-01
  -9.9899300e-01
  -1.0551450e+00
  -1.0667420e+00
  -9.9762000e-01
  -9.9395800e-01
  -1.0426330e+00
  -1.0112000e+00
  -9.8205600e-01
  -1.0385130e+00
  -1.0336300e+00
  -9.8175000e-01
  -1.0470580e+00
  -1.0437010e+00
  -1.0261540e+00
  -1.0443120e+00
  -1.0386660e+00
  -9.9044800e-01
  -1.0261540e+00
  -1.0487370e+00
  -1.0409550e+00
  -1.0173030e+00
  -1.0169980e+00
  -1.0034180e+00
  -9.9517800e-01
  -1.0194400e+00
  -1.0092160e+00
  -9.8754900e-01
  -1.0073850e+00
  -1.0107420e+00
  -9.8434400e-01
  -1.0302730e+00
  -1.0075380e+00
  -9.7396900e-01
  -1.0314940e+00
  -9.9578900e-01
  -1.0267640e+00
  -1.0136410e+00
  -9.8144500e-01
  -1.0125730e+00
  -9.7808800e-01
  -9.3566900e-01
  -9.2926000e-01
  -8.9538600e-01
  -8.3587600e-01
  -8.7036100e-01
  -9.1690100e-01
  -8.7753300e-01
  -8.4243800e-01
  -8.5845900e-01
  -8.7173500e-01
  -8.8394200e-01
  -7.7484100e-01
  -7.7652000e-01
  -8.0902100e-01
  -7.8826900e-01
  -7.9299900e-01
  -7.7896100e-01
  -7.3303200e-01
  -6.9076500e-01
  -7.0968600e-01
  -7.0678700e-01
  -7.1792600e-01
  -7.3700000e-01
  -7.3242200e-01
  -6.8038900e-01
  -6.3583400e-01
  -5.9707600e-01
  -5.7968100e-01
  -5.6930500e-01
  -6.0699500e-01
  -6.1187700e-01
  -5.9829700e-01
  -5.7724000e-01
  -5.6671100e-01
  -5.2627600e-01
  -4.8736600e-01
  -4.8614500e-01
  -4.9087500e-01
  -4.8156700e-01
  -5.0231900e-01
  -5.2719100e-01
  -5.5587800e-01
  -5.6396500e-01
  -5.6106600e-01
  -5.6518600e-01
  -6.0714700e-01
  -6.1828600e-01
  -5.8471700e-01
  -6.3140900e-01
  -6.5765400e-01
  -6.3949600e-01
  -6.5216100e-01
  -6.1157200e-01
  -5.8929400e-01
  -6.0348500e-01
  -5.8593700e-01
  -6.4132700e-01
  -6.1248800e-01
  -6.5033000e-01
  -6.5902700e-01
  -6.8664600e-01
  -6.9427500e-01
  -6.5658600e-01
  -6.7993200e-01
  -6.4514200e-01
  -6.9335900e-01
  -7.0175200e-01
  -6.9442700e-01
  -6.7459100e-01
  -6.6635100e-01
  -7.0953400e-01
  -7.2326700e-01
  -7.4554400e-01
  -7.6110800e-01
  -7.4600200e-01
  -7.5637800e-01
  -8.0688500e-01
  -8.3145100e-01
  -8.5845900e-01
  -8.4396400e-01
  -8.7265000e-01
  -8.9096100e-01
  -8.9904800e-01
  -9.4924900e-01
  -9.5535300e-01
  -9.3734700e-01
  -9.3505900e-01
  -9.2529300e-01
  -9.3978900e-01
  -9.8693800e-01
  -9.9899300e-01
  -9.9121100e-01
  -1.0092160e+00
  -1.0305790e+00
  -1.0371400e+00
  -1.0487370e+00
  -1.0401920e+00
  -1.0079960e+00
  -9.9441500e-01
  -1.0401920e+00
  -1.0258480e+00
  -1.0235600e+00
  -1.0287480e+00
  -1.0125730e+00
  -1.0340880e+00
  -1.0134890e+00
  -1.0237120e+00
  -9.9868800e-01
  -1.0380550e+00
  -1.0507200e+00
  -1.0379030e+00
  -1.0507200e+00
  -1.0437010e+00
  -1.0481260e+00
  -1.0122680e+00
  -9.9456800e-01
  -1.0180660e+00
  -1.0018920e+00
  -9.7580000e-01
  -9.8205600e-01
  -1.0234070e+00
  -9.9350000e-01
  -9.7915600e-01
  -1.0145570e+00
  -1.0403440e+00
  -1.0017400e+00
  -9.8465000e-01
  -1.0211180e+00
  -1.0206600e+00
  -1.0244750e+00
  -1.0324100e+00
  -9.9884000e-01
  -1.0093690e+00
  -1.0153200e+00
  -9.7457900e-01
  -9.7732500e-01
  -9.5520000e-01
  -1.0026550e+00
  -1.0038760e+00
  -9.5443700e-01
  -9.2681900e-01
  -9.4909700e-01
  -9.5352200e-01
  -9.1018700e-01
  -8.7936400e-01
  -8.1634500e-01
  -7.7652000e-01
  -7.1914700e-01
  -6.9625900e-01
  -6.4590500e-01
  -6.5200800e-01
  -6.2118500e-01
  -4.5135500e-01
  -5.1895100e-01
  -5.3115800e-01
  -4.0817300e-01
  -4.4311500e-01
  -2.4581900e-01
  -2.7542100e-01
  -1.5243500e-01
  -1.6327000e-02
   1.2100200e-01
   2.7710000e-01
   3.7399300e-01
   6.1706500e-01
   8.1680300e-01
   1.0014340e+00
   1.2338260e+00
   1.4825440e+00
   1.6204830e+00
   1.7941280e+00
   1.9993590e+00
   2.2012330e+00
   2.3660280e+00
   2.5334170e+00
   2.6170350e+00
   2.5926210e+00
   2.4526980e+00
   2.2050480e+00
   1.7189030e+00
   1.2464900e+00
   7.7758800e-01
   3.7902800e-01
   1.1871300e-01
  -1.2664800e-01
  -3.8116500e-01
  -4.5242300e-01
  -6.7169200e-01
  -5.8563200e-01
  -5.1055900e-01
  -5.7098400e-01
  -4.8797600e-01
  -5.7586700e-01
  -5.9967000e-01
  -6.1721800e-01
  -7.6828000e-01
  -8.7844800e-01
  -9.5092800e-01
  -1.0191350e+00
  -1.1225890e+00
  -1.1912540e+00
  -1.1790470e+00
  -1.1837770e+00
  -1.2658690e+00
  -1.2095640e+00
  -1.1708070e+00
  -1.1921690e+00
  -1.1834720e+00
  -1.1517330e+00
  -1.1540220e+00
  -1.1451720e+00
  -1.1114500e+00
  -1.0879520e+00
  -1.0592650e+00
  -1.0090640e+00
  -9.7244300e-01
  -9.0820300e-01
  -8.7127700e-01
  -8.4793100e-01
  -8.3358800e-01
  -8.5128800e-01
  -8.7402300e-01
  -8.6151100e-01
  -8.7600700e-01
  -7.9406700e-01
  -8.0062900e-01
  -8.4915200e-01
  -9.0377800e-01
  -9.1842700e-01
  -8.9874300e-01
  -8.1985500e-01
  -8.1649800e-01
  -8.9431800e-01
  -9.2666600e-01
  -8.8516200e-01
  -7.8582800e-01
  -8.5662800e-01
  -9.1918900e-01
  -8.3725000e-01
  -7.8979500e-01
  -8.8836700e-01
  -8.5907000e-01
  -7.6660200e-01
  -8.1039400e-01
  -8.4365800e-01
  -8.8028000e-01
  -8.8287400e-01
  -7.8704800e-01
  -7.5866700e-01
  -8.3709700e-01
  -8.7677000e-01
  -7.9177900e-01
  -7.5317400e-01
  -7.8750600e-01
  -8.4137000e-01
  -8.1802400e-01
  -7.5882000e-01
  -8.0810500e-01
  -8.1726100e-01
  -7.3883100e-01
  -8.2428000e-01
  -7.8155500e-01
  -7.7911400e-01
  -8.1085200e-01
  -7.0892300e-01
  -8.2519500e-01
  -7.4752800e-01
  -7.5927700e-01
  -8.0963100e-01
  -8.0368000e-01
  -7.2723400e-01
  -7.2769200e-01
  -7.7804600e-01
  -7.7957200e-01
  -6.8450900e-01
  -7.3516800e-01
  -7.9010000e-01
  -8.1558200e-01
  -7.1655300e-01
  -6.9732700e-01
  -7.5149500e-01
  -7.0068400e-01
  -7.2982800e-01
  -7.7362100e-01
  -6.6238400e-01
  -7.1914700e-01
  -7.6141400e-01
  -6.3659700e-01
  -7.3165900e-01
  -6.8054200e-01
  -6.5139800e-01
  -7.6141400e-01
  -6.2851000e-01
  -7.2036700e-01
  -7.1579000e-01
  -6.2759400e-01
  -7.1411100e-01
  -7.4173000e-01
  -6.5628100e-01
  -7.1685800e-01
  -7.1914700e-01
  -5.9906000e-01
  -6.8191500e-01
  -6.3125600e-01
  -7.2525000e-01
  -6.1813400e-01
  -6.9168100e-01
  -6.0501100e-01
  -7.3272700e-01
  -6.3262900e-01
  -7.1945200e-01
  -6.4193700e-01
  -7.0785500e-01
  -6.0821500e-01
  -6.7245500e-01
  -5.5679300e-01
  -6.7367600e-01
  -5.5725100e-01
  -6.3217200e-01
  -5.1025400e-01
  -5.8456400e-01
  -5.4779100e-01
  -5.9280400e-01
  -5.8410600e-01
  -5.9707600e-01
  -5.8319100e-01
  -5.8258100e-01
  -5.7769800e-01
  -5.8563200e-01
  -5.0979600e-01
  -5.9616100e-01
  -4.9087500e-01
  -6.0562100e-01
  -4.9331700e-01
  -5.0582900e-01
  -5.2795400e-01
  -4.4906600e-01
  -5.6884800e-01
  -4.9896200e-01
  -4.4052100e-01
  -5.4153400e-01
  -4.7332800e-01
  -4.5990000e-01
  -5.2688600e-01
  -5.0918600e-01
  -4.3167100e-01
  -4.8934900e-01
  -5.1849400e-01
  -4.1626000e-01
  -4.9087500e-01
  -4.6432500e-01
  -3.7521400e-01
  -4.5761100e-01
  -4.7302200e-01
  -3.8375900e-01
  -3.5949700e-01
  -4.3029800e-01
  -4.1061400e-01
  -3.1936600e-01
  -3.9276100e-01
  -4.4448900e-01
  -4.4586200e-01
  -3.4240700e-01
  -3.2028200e-01
  -3.2135000e-01
  -3.2882700e-01
  -3.7674000e-01
  -3.8574200e-01
  -3.1387300e-01
  -2.2811900e-01
  -2.4932900e-01
  -2.9251100e-01
  -2.9403700e-01
  -2.9235800e-01
  -2.7374300e-01
  -2.6123000e-01
  -2.2415200e-01
  -2.1560700e-01
  -2.0324700e-01
  -1.5426600e-01
  -1.4816300e-01
  -1.4770500e-01
  -1.4968900e-01
  -1.5548700e-01
  -1.3931300e-01
  -1.4389000e-01
  -1.5121500e-01
  -1.4297500e-01
  -9.7961000e-02
  -3.7384000e-02
  -9.0030000e-03
  -2.1820000e-02
  -2.8381000e-02
  -3.1738000e-02
   2.3651000e-02
   7.6290000e-03
   7.9350000e-03
   3.2196000e-02
   4.5776000e-02
   3.1738000e-02
   8.9111000e-02
   9.9640000e-02
   6.0883000e-02
   1.2924200e-01
   1.1581400e-01
   1.1398300e-01
   1.6098000e-01
   1.2252800e-01
   1.5701300e-01
   1.9760100e-01
   1.4617900e-01
   1.7593400e-01
   2.7313200e-01
   2.1560700e-01
   2.7206400e-01
   2.0294200e-01
   2.5619500e-01
   2.1896400e-01
   2.8106700e-01
   2.5283800e-01
   3.4408600e-01
   2.7374300e-01
   3.2028200e-01
   2.8564500e-01
   2.9296900e-01
   2.9266400e-01
   2.8152500e-01
   3.0075100e-01
   2.9663100e-01
   2.8442400e-01
   2.2781400e-01
   2.9373200e-01
   2.6611300e-01
   2.9159500e-01
   2.7069100e-01
   2.9983500e-01
   2.9083300e-01
   2.4353000e-01
   2.4780300e-01
   2.1637000e-01
   2.1270800e-01
   1.2710600e-01
   1.6571000e-01
   1.2329100e-01
   8.5449000e-02
   1.1184700e-01
   6.3019000e-02
   1.0513300e-01
   1.0513300e-01
  -3.8150000e-03
   5.7373000e-02
   2.3346000e-02
  -2.0294000e-02
  -5.7526000e-02
  -5.0201000e-02
  -1.1062600e-01
  -1.5365600e-01
  -1.2832600e-01
  -1.4114400e-01
  -1.4297500e-01
  -1.7318700e-01
  -2.3010300e-01
  -2.5604200e-01
  -3.1860400e-01
  -3.1799300e-01
  -3.3676100e-01
  -3.1143200e-01
  -3.1616200e-01
  -3.2806400e-01
  -3.3905000e-01
  -3.7506100e-01
  -4.3380700e-01
  -4.8980700e-01
  -4.5379600e-01
  -4.1442900e-01
  -4.2953500e-01
  -5.4000900e-01
  -5.0399800e-01
  -4.7744800e-01
  -5.8044400e-01
  -4.9942000e-01
  -5.1467900e-01
  -5.9570300e-01
  -5.0964400e-01
  -5.6533800e-01
  -5.8548000e-01
  -5.1544200e-01
  -6.0989400e-01
  -5.7983400e-01
  -5.2825900e-01
  -6.2515300e-01
  -5.5084200e-01
  -5.9204100e-01
  -6.7733800e-01
  -5.6900000e-01
  -7.0068400e-01
  -5.8044400e-01
  -6.9122300e-01
  -6.6253700e-01
  -6.5612800e-01
  -6.6345200e-01
  -5.7846100e-01
  -6.8206800e-01
  -6.1508200e-01
  -6.4819300e-01
  -6.9091800e-01
  -6.0318000e-01
  -7.1868900e-01
  -6.1904900e-01
  -7.1411100e-01
  -6.9335900e-01
  -6.5612800e-01
  -7.4386600e-01
  -6.2683100e-01
  -7.5882000e-01
  -6.4956700e-01
  -7.5256300e-01
  -6.0821500e-01
  -7.4325600e-01
  -6.4407300e-01
  -7.4310300e-01
  -6.6055300e-01
  -7.2235100e-01
  -6.5002400e-01
  -6.8725600e-01
  -7.0739700e-01
  -7.0678700e-01
  -7.1807900e-01
  -6.9564800e-01
  -6.9000200e-01
  -6.7977900e-01
  -7.2311400e-01
  -6.9442700e-01
  -7.1075400e-01
  -6.4086900e-01
  -7.2082500e-01
  -6.7550700e-01
  -7.6171900e-01
  -6.5124500e-01
  -7.4249300e-01
  -6.6619900e-01
  -7.8414900e-01
  -6.5399200e-01
  -7.1075400e-01
  -6.9229100e-01
  -6.8908700e-01
  -7.5973500e-01
  -6.4285300e-01
  -7.7056900e-01
  -6.5277100e-01
  -7.2326700e-01
  -7.2219800e-01
  -6.7123400e-01
  -7.2998000e-01
  -6.3736000e-01
  -7.5332600e-01
  -6.3552900e-01
  -6.6726700e-01
  -7.1853600e-01
  -6.0623200e-01
  -7.4127200e-01
  -6.7398100e-01
  -7.3913600e-01
  -7.0022600e-01
  -6.6787700e-01
  -7.4478100e-01
  -6.6314700e-01
  -7.5714100e-01
  -6.4132700e-01
  -7.4081400e-01
  -6.3201900e-01
  -7.3547400e-01
  -6.4315800e-01
  -6.3736000e-01
  -7.2525000e-01
  -6.3079800e-01
  -7.4676500e-01
  -6.7398100e-01
  -7.1548500e-01
  -7.1624800e-01
  -6.5246600e-01
  -7.5531000e-01
  -6.1294600e-01
  -7.2784400e-01
  -6.7260700e-01
  -6.0501100e-01
  -7.2082500e-01
  -6.1508200e-01
  -6.7337000e-01
  -7.1365400e-01
  -6.2545800e-01
  -7.5408900e-01
  -5.9692400e-01
  -7.3898300e-01
  -6.3674900e-01
  -6.9091800e-01
  -6.6925000e-01
  -6.3247700e-01
  -7.1731600e-01
  -6.1019900e-01
  -7.0129400e-01
  -6.4193700e-01
  -6.6696200e-01
  -6.7718500e-01
  -5.9722900e-01
  -6.7489600e-01
  -5.6396500e-01
  -6.3598600e-01
  -6.7138700e-01
  -6.0165400e-01
  -7.0739700e-01
  -6.3339200e-01
  -6.8969700e-01
  -6.5490700e-01
  -5.9448200e-01
  -7.1243300e-01
  -5.7785000e-01
  -6.4666700e-01
  -6.5994300e-01
  -6.1004600e-01
  -6.7886400e-01
  -5.6182900e-01
  -6.8145800e-01
  -5.7617200e-01
  -5.8273300e-01
  -7.0526100e-01
  -5.8944700e-01
  -6.8054200e-01
  -6.6085800e-01
  -6.4895600e-01
  -6.9091800e-01
  -5.5343600e-01
  -6.7703200e-01
  -5.7418800e-01
  -6.6391000e-01
  -5.8288600e-01
  -6.0104400e-01
  -6.4621000e-01
  -6.0363800e-01
  -6.5277100e-01
  -5.8639500e-01
  -6.7611700e-01
  -5.8090200e-01
  -6.5307600e-01
  -5.7922400e-01
  -6.8222000e-01
  -6.1111500e-01
  -6.3659700e-01
  -6.6696200e-01
  -5.6747400e-01
  -6.5078700e-01
  -6.1492900e-01
  -5.6304900e-01
  -6.6970800e-01
  -6.3888500e-01
  -5.9555100e-01
  -6.6207900e-01
  -6.6909800e-01
  -5.8715800e-01
  -6.0577400e-01
  -6.5719600e-01
  -6.3110400e-01
  -5.7357800e-01
  -5.8151200e-01
  -6.4132700e-01
  -6.5719600e-01
  -6.6574100e-01
  -6.3598600e-01
  -6.1569200e-01
  -5.9005700e-01
  -5.6945800e-01
  -6.1355600e-01
  -6.4987200e-01
  -6.7535400e-01
  -6.8313600e-01
  -6.7565900e-01
  -6.6970800e-01
  -6.2622100e-01
  -5.8929400e-01
  -5.7342500e-01
  -6.0150100e-01
  -6.4376800e-01
  -6.6665600e-01
  -6.6146900e-01
  -6.2973000e-01
  -6.1874400e-01
  -5.8685300e-01
  -6.2576300e-01
  -6.4697300e-01
  -6.7092900e-01
  -6.6314700e-01
  -6.8130500e-01
  -6.7688000e-01
  -6.6055300e-01
  -6.3110400e-01
  -6.1767600e-01
  -6.5139800e-01
  -6.5841700e-01
  -7.1289100e-01
  -7.1029700e-01
  -6.6879300e-01
  -5.9829700e-01
  -6.2377900e-01
  -6.5765400e-01
  -7.0358300e-01
  -6.6070600e-01
  -5.8502200e-01
  -5.8532700e-01
  -6.4636200e-01
  -6.9717400e-01
  -6.2500000e-01
  -6.0653700e-01
  -6.8023700e-01
  -6.6452000e-01
  -5.8334400e-01
  -6.7413300e-01
  -6.8405200e-01
  -5.9906000e-01
  -6.4773600e-01
  -6.9763200e-01
  -5.8334400e-01
  -6.6207900e-01
  -6.0485800e-01
  -6.0134900e-01
  -6.3812300e-01
  -6.0257000e-01
  -6.4666700e-01
  -5.8151200e-01
  -6.5643300e-01
  -5.9997600e-01
  -6.1111500e-01
  -6.5963700e-01
  -5.4733300e-01
  -6.5719600e-01
  -5.6121800e-01
  -6.3659700e-01
  -5.8822600e-01
  -6.0257000e-01
  -6.5719600e-01
  -5.9127800e-01
  -6.4804100e-01
  -5.8273300e-01
  -6.7794800e-01
  -5.8654800e-01
  -6.9809000e-01
  -5.9463500e-01
  -6.7932100e-01
  -5.7373000e-01
  -7.0388800e-01
  -5.9387200e-01
  -6.9412200e-01
  -5.5297900e-01
  -6.7153900e-01
  -5.8242800e-01
  -6.9259600e-01
  -5.5770900e-01
  -6.7596400e-01
  -5.8059700e-01
  -6.4743000e-01
  -6.1462400e-01
  -6.6177400e-01
  -6.3903800e-01
  -6.0318000e-01
  -6.2774700e-01
  -6.0745200e-01
  -6.4819300e-01
  -5.7281500e-01
  -6.7550700e-01
  -5.7876600e-01
  -6.5979000e-01
  -5.1086400e-01
  -6.5429700e-01
  -5.7113600e-01
  -6.7047100e-01
  -6.1889600e-01
  -6.1721800e-01
  -6.4895600e-01
  -5.7907100e-01
  -6.9915800e-01
  -6.2637300e-01
  -5.7617200e-01
  -6.9061300e-01
  -6.4987200e-01
  -5.6945800e-01
  -6.3751200e-01
  -6.6177400e-01
  -6.6741900e-01
  -6.5689100e-01
  -6.4773600e-01
  -6.4285300e-01
  -6.4392100e-01
  -6.6314700e-01
  -6.4804100e-01
  -6.3415500e-01
  -6.1157200e-01
  -6.6650400e-01
  -6.4346300e-01
  -6.2683100e-01
  -6.4682000e-01
  -6.2789900e-01
  -6.3034100e-01
  -6.1950700e-01
  -6.4636200e-01
  -6.2316900e-01
  -6.4056400e-01
  -6.3507100e-01
  -6.0501100e-01
  -6.4834600e-01
  -6.3583400e-01
  -6.3797000e-01
  -6.4773600e-01
  -6.7184400e-01
  -6.6635100e-01
  -6.3995400e-01
  -6.5933200e-01
  -6.7215000e-01
  -6.2164300e-01
  -6.6253700e-01
  -6.6101100e-01
  -6.5750100e-01
  -6.3903800e-01
  -6.5078700e-01
  -6.4621000e-01
  -6.2835700e-01
  -6.3507100e-01
  -6.1508200e-01
  -6.0531600e-01
  -6.3262900e-01
  -6.3140900e-01
  -6.7764300e-01
  -6.3980100e-01
  -6.2606800e-01
  -6.0180700e-01
  -5.7815600e-01
  -6.1248800e-01
  -5.9707600e-01
  -6.2103300e-01
  -6.7062400e-01
  -6.0684200e-01
  -6.3690200e-01
  -6.3186600e-01
  -6.5078700e-01
  -5.8960000e-01
  -6.9442700e-01
  -5.8593700e-01
  -6.9015500e-01
  -5.8471700e-01
  -6.9900500e-01
  -5.8914200e-01
  -6.3278200e-01
  -6.1843900e-01
  -5.5481000e-01
  -6.6848800e-01
  -6.4758300e-01
  -5.8441200e-01
  -6.0409500e-01
  -6.6192600e-01
  -7.1289100e-01
  -6.8328900e-01
  -6.1142000e-01
  -6.0379000e-01
  -6.4270000e-01
  -6.7108200e-01
  -7.0205700e-01
  -6.9366500e-01
  -6.5734900e-01
  -6.0318000e-01
  -5.6762700e-01
  -6.4163200e-01
  -6.5094000e-01
  -6.4910900e-01
  -5.8441200e-01
  -5.6610100e-01
  -6.2332200e-01
  -6.4758300e-01
  -6.9442700e-01
  -6.5765400e-01
  -5.9845000e-01
  -6.0150100e-01
  -6.2927200e-01
  -6.7504900e-01
  -6.9198600e-01
  -6.6513100e-01
  -6.1554000e-01
  -6.0882600e-01
  -6.0318000e-01
  -6.2362700e-01
  -6.6543600e-01
  -6.4010600e-01
  -5.6503300e-01
  -5.7815600e-01
  -6.1294600e-01
  -6.2591600e-01
  -6.7611700e-01
  -6.6299400e-01
  -6.6101100e-01
  -6.0821500e-01
  -5.6900000e-01
  -5.5038500e-01
  -5.7083100e-01
  -6.3446000e-01
  -6.6528300e-01
  -6.4559900e-01
  -6.2881500e-01
  -6.4254800e-01
  -6.5658600e-01
  -6.2957800e-01
  -5.9127800e-01
  -5.8441200e-01
  -5.8563200e-01
  -5.9890700e-01
  -6.1065700e-01
  -5.9738200e-01
  -6.0485800e-01
  -5.9494000e-01
  -6.7977900e-01
  -7.0236200e-01
  -6.8374600e-01
  -6.6268900e-01
  -6.5155000e-01
  -6.5536500e-01
  -6.3995400e-01
  -6.3644400e-01
  -6.4025900e-01
  -6.5048200e-01
  -6.3583400e-01
  -6.3156100e-01
  -6.4590500e-01
  -6.6024800e-01
  -6.4743000e-01
  -6.2194800e-01
  -6.5155000e-01
  -6.2851000e-01
  -6.1569200e-01
  -6.0195900e-01
  -6.1096200e-01
  -6.2210100e-01
  -5.9906000e-01
  -5.8532700e-01
  -6.0867300e-01
  -6.1309800e-01
  -6.1981200e-01
  -6.6986100e-01
  -6.6635100e-01
  -6.4590500e-01
  -6.6482500e-01
  -6.5292400e-01
  -6.4712500e-01
  -6.1767600e-01
  -6.2316900e-01
  -6.2164300e-01
  -6.0257000e-01
  -5.7907100e-01
  -5.5481000e-01
  -5.4199200e-01
  -4.9453700e-01
  -5.0781200e-01
  -5.3512600e-01
  -5.3176900e-01
  -5.2429200e-01
  -5.4153400e-01
  -5.2917500e-01
  -5.1223800e-01
  -5.1315300e-01
  -4.7271700e-01
  -4.4448900e-01
  -4.0725700e-01
  -3.4423800e-01
  -3.5705600e-01
  -4.2816200e-01
  -4.3746900e-01
  -4.5105000e-01
  -4.4570900e-01
  -4.2144800e-01
  -3.5720800e-01
  -3.0807500e-01
  -2.7481100e-01
  -2.8961200e-01
  -2.8244000e-01
  -3.0670200e-01
  -2.4246200e-01
  -1.9134500e-01
  -2.1133400e-01
  -2.4490400e-01
  -2.3635900e-01
  -1.7044100e-01
  -1.4526400e-01
  -1.9363400e-01
  -2.3117100e-01
  -1.6983000e-01
  -1.3214100e-01
  -1.6586300e-01
  -1.9790600e-01
  -1.8493700e-01
  -1.7684900e-01
  -2.0202600e-01
  -2.1743800e-01
  -2.5894200e-01
  -2.7786300e-01
  -2.8823900e-01
  -2.8961200e-01
  -2.9861500e-01
  -3.5125700e-01
  -3.1021100e-01
  -3.3309900e-01
  -3.0334500e-01
  -2.9754600e-01
  -2.9556300e-01
  -3.1097400e-01
  -3.3615100e-01
  -3.3142100e-01
  -3.2821700e-01
  -3.2760600e-01
  -3.1082200e-01
  -2.9968300e-01
  -2.6916500e-01
  -2.9388400e-01
  -3.1951900e-01
  -3.3889800e-01
  -3.5110500e-01
  -3.5415600e-01
  -3.6270100e-01
  -4.0237400e-01
  -3.6163300e-01
  -3.9932300e-01
  -4.1687000e-01
  -4.1595500e-01
  -4.3823200e-01
  -4.5654300e-01
  -4.7866800e-01
  -4.9575800e-01
  -5.1147500e-01
  -5.5526700e-01
  -5.7327300e-01
  -5.6762700e-01
  -6.0211200e-01
  -6.1904900e-01
  -6.2179600e-01
  -6.0882600e-01
  -6.0867300e-01
  -6.0607900e-01
  -6.3980100e-01
  -6.7672700e-01
  -6.8038900e-01
  -7.1929900e-01
  -7.3181200e-01
  -7.3577900e-01
  -7.2128300e-01
  -7.3410000e-01
  -7.0953400e-01
  -7.6095600e-01
  -7.3700000e-01
  -7.5851400e-01
  -7.0358300e-01
  -7.5531000e-01
  -7.1258500e-01
  -7.5027500e-01
  -7.2692900e-01
  -7.7148400e-01
  -7.4508700e-01
  -7.5134300e-01
  -7.6553300e-01
  -7.5256300e-01
  -7.5408900e-01
  -7.5454700e-01
  -7.6553300e-01
  -7.3547400e-01
  -7.2921800e-01
  -7.3059100e-01
  -7.5500500e-01
  -7.5256300e-01
  -7.5225800e-01
  -7.5454700e-01
  -7.1838400e-01
  -7.0800800e-01
  -7.5012200e-01
  -7.6965300e-01
  -7.6904300e-01
  -7.5393700e-01
  -7.6751700e-01
  -7.5561500e-01
  -7.7514600e-01
  -7.2845500e-01
  -7.3867800e-01
  -7.2311400e-01
  -7.1395900e-01
  -7.5012200e-01
  -7.5668300e-01
  -7.6141400e-01
  -7.3959400e-01
  -7.6324500e-01
  -7.5439500e-01
  -7.4661300e-01
  -7.2311400e-01
  -6.8832400e-01
  -6.7764300e-01
  -6.3034100e-01
  -6.4315800e-01
  -6.2332200e-01
  -5.5267300e-01
  -5.5160500e-01
  -5.5481000e-01
  -5.0308200e-01
  -4.1427600e-01
  -3.2486000e-01
  -2.6107800e-01
  -2.9464700e-01
  -2.9846200e-01
  -2.5207500e-01
  -1.2634300e-01
  -1.1352500e-01
  -4.5319000e-02
   7.4921000e-02
   2.3483300e-01
   3.0410800e-01
   4.4525100e-01
   6.1920200e-01
   7.4142500e-01
   9.7213700e-01
   1.1653140e+00
   1.4218140e+00
   1.6331480e+00
   1.8151860e+00
   1.9917300e+00
   2.1423340e+00
   2.3036190e+00
   2.5149540e+00
   2.6474000e+00
   2.6387020e+00
   2.6484680e+00
   2.6414490e+00
   2.5102230e+00
   2.0019530e+00
   1.5296940e+00
   1.1065670e+00
   7.4371300e-01
   3.7750200e-01
   1.1383100e-01
  -4.4861000e-02
  -1.9439700e-01
  -3.4851100e-01
  -3.8681000e-01
  -2.4887100e-01
  -3.5018900e-01
  -2.6809700e-01
  -4.2709400e-01
  -2.8228800e-01
  -4.3762200e-01
  -4.5547500e-01
  -5.0125100e-01
  -6.4041100e-01
  -6.9946300e-01
  -7.4768100e-01
  -8.3557100e-01
  -9.1339100e-01
  -9.8846400e-01
  -1.0127260e+00
  -9.9258400e-01
  -9.8724400e-01
  -1.0546870e+00
  -9.8739600e-01
  -9.2041000e-01
  -8.7234500e-01
  -8.4808300e-01
  -8.6059600e-01
  -9.0210000e-01
  -8.4137000e-01
  -7.9010000e-01
  -7.8216600e-01
  -7.5851400e-01
  -7.0846600e-01
  -7.1334800e-01
  -6.6238400e-01
  -6.3339200e-01
  -6.1630200e-01
  -6.5658600e-01
  -6.6146900e-01
  -6.8588300e-01
  -7.1533200e-01
  -6.9274900e-01
  -6.6207900e-01
  -6.6589400e-01
  -6.0699500e-01
  -6.3064600e-01
  -6.8100000e-01
  -7.0037800e-01
  -7.1609500e-01
  -6.9000200e-01
  -6.4224200e-01
  -6.3385000e-01
  -6.2377900e-01
  -6.3003500e-01
  -6.5216100e-01
  -6.9656400e-01
  -7.3120100e-01
  -7.0220900e-01
  -6.5841700e-01
  -6.4056400e-01
  -6.2851000e-01
  -6.1874400e-01
  -6.2072800e-01
  -6.3934300e-01
  -6.5597500e-01
  -6.6894500e-01
  -6.5536500e-01
  -6.2027000e-01
  -6.0226400e-01
  -6.1309800e-01
  -6.2622100e-01
  -5.9082000e-01
  -6.4453100e-01
  -6.8008400e-01
  -6.7657500e-01
  -6.7092900e-01
  -6.2500000e-01
  -6.1126700e-01
  -5.8883700e-01
  -5.6732200e-01
  -6.0623200e-01
  -6.3720700e-01
  -6.4529400e-01
  -6.1294600e-01
  -5.7327300e-01
  -5.7052600e-01
  -6.2454200e-01
  -6.4163200e-01
  -6.2088000e-01
  -5.8685300e-01
  -5.5328400e-01
  -5.8822600e-01
  -5.9951800e-01
  -6.0745200e-01
  -5.3665200e-01
  -5.1879900e-01
  -5.4565400e-01
  -5.9768700e-01
  -6.0318000e-01
  -5.1055900e-01
  -4.9362200e-01
  -5.6213400e-01
  -5.8624300e-01
  -5.4840100e-01
  -4.9484300e-01
  -5.3436300e-01
  -6.0119600e-01
  -5.9051500e-01
  -5.4214500e-01
  -5.0857500e-01
  -5.5053700e-01
  -5.8792100e-01
  -5.2475000e-01
  -4.6188400e-01
  -5.0979600e-01
  -5.8807400e-01
  -5.8166500e-01
  -4.9301100e-01
  -4.4937100e-01
  -5.0918600e-01
  -5.9051500e-01
  -5.7495100e-01
  -5.1879900e-01
  -5.0430300e-01
  -5.8166500e-01
  -5.8059700e-01
  -4.7714200e-01
  -4.6951300e-01
  -5.2383400e-01
  -5.3268400e-01
  -4.5272800e-01
  -4.3945300e-01
  -5.0415000e-01
  -5.1223800e-01
  -4.6875000e-01
  -4.9835200e-01
  -5.5450400e-01
  -5.4031400e-01
  -4.7470100e-01
  -4.5120200e-01
  -4.8629800e-01
  -4.8233000e-01
  -4.2419400e-01
  -4.2450000e-01
  -4.9743700e-01
  -4.3075600e-01
  -4.2251600e-01
  -4.9346900e-01
  -4.4891400e-01
  -3.7414600e-01
  -4.5623800e-01
  -4.5211800e-01
  -3.7460300e-01
  -4.4540400e-01
  -4.3182400e-01
  -3.7338300e-01
  -4.6722400e-01
  -4.2221100e-01
  -3.6056500e-01
  -4.4708300e-01
  -4.0023800e-01
  -3.5110500e-01
  -4.4143700e-01
  -3.4591700e-01
  -3.7567100e-01
  -3.8528400e-01
  -2.7526900e-01
  -3.8650500e-01
  -2.9815700e-01
  -3.6697400e-01
  -3.7155200e-01
  -2.8854400e-01
  -3.9886500e-01
  -2.6321400e-01
  -3.7750200e-01
  -2.8518700e-01
  -3.2333400e-01
  -2.6214600e-01
  -2.6672400e-01
  -2.3986800e-01
  -2.5314300e-01
  -2.0660400e-01
  -2.9220600e-01
  -2.0278900e-01
  -2.5741600e-01
  -1.5869100e-01
  -2.3910500e-01
  -1.5182500e-01
  -1.8737800e-01
  -2.1667500e-01
  -1.2390100e-01
  -2.1514900e-01
  -1.2832600e-01
  -1.4526400e-01
  -1.9058200e-01
  -9.1858000e-02
  -1.5960700e-01
  -1.1184700e-01
  -5.4626000e-02
  -1.2466400e-01
  -8.9417000e-02
   4.2720000e-03
  -3.4027000e-02
  -9.4299000e-02
   1.0680000e-03
   4.8981000e-02
   2.1973000e-02
  -2.8687000e-02
  -1.2970000e-02
   5.1270000e-02
   9.4452000e-02
   8.4686000e-02
   3.5858000e-02
   9.9180000e-03
   3.6469000e-02
   8.4076000e-02
   1.2161300e-01
   1.3824500e-01
   1.6555800e-01
   1.3565100e-01
   5.8594000e-02
   6.1493000e-02
   1.3092000e-01
   1.2283300e-01
   1.4267000e-01
   1.4373800e-01
   1.5380900e-01
   1.8386800e-01
   2.0156900e-01
   1.9546500e-01
   1.8890400e-01
   1.9058200e-01
   1.9836400e-01
   2.0492600e-01
   1.8096900e-01
   1.7974900e-01
   1.8859900e-01
   1.8783600e-01
   2.2628800e-01
   2.3468000e-01
   2.3681600e-01
   2.5222800e-01
   2.4444600e-01
   2.3300200e-01
   2.1713300e-01
   2.2995000e-01
   2.4826000e-01
   2.7069100e-01
   2.8518700e-01
   2.4124100e-01
   2.2979700e-01
   2.3223900e-01
   1.8798800e-01
   1.1947600e-01
   8.1482000e-02
   7.3395000e-02
   5.1727000e-02
   6.4240000e-02
   1.2878400e-01
   1.2588500e-01
   9.3689000e-02
  -8.2400000e-03
  -2.7008000e-02
   1.6327000e-02
  -3.0975000e-02
  -9.5825000e-02
  -3.6774000e-02
  -5.3406000e-02
  -2.2918700e-01
  -1.5335100e-01
  -2.7435300e-01
  -1.9027700e-01
  -2.4856600e-01
  -2.3178100e-01
  -2.9312100e-01
  -2.5955200e-01
  -3.8070700e-01
  -2.8457600e-01
  -3.3477800e-01
  -3.8085900e-01
  -3.3050500e-01
  -4.3228100e-01
  -4.3869000e-01
  -3.8864100e-01
  -4.2480500e-01
  -4.8843400e-01
  -4.9926800e-01
  -4.8477200e-01
  -5.0170900e-01
  -5.5557300e-01
  -6.0257000e-01
  -6.1813400e-01
  -6.0318000e-01
  -6.5963700e-01
  -6.6543600e-01
  -6.4743000e-01
  -6.5460200e-01
  -6.3095100e-01
  -6.5078700e-01
  -6.3400300e-01
  -6.5292400e-01
  -6.4743000e-01
  -6.8725600e-01
  -7.0373500e-01
  -7.2357200e-01
  -7.4493400e-01
  -7.3761000e-01
  -7.6461800e-01
  -7.6065100e-01
  -7.8506500e-01
  -7.9895000e-01
  -7.7438400e-01
  -7.5454700e-01
  -7.2464000e-01
  -7.1182300e-01
  -7.2448700e-01
  -7.1884200e-01
  -7.5988800e-01
  -7.6126100e-01
  -7.7362100e-01
  -7.9727200e-01
  -7.8781100e-01
  -8.2275400e-01
  -8.0856300e-01
  -8.0444300e-01
  -7.6309200e-01
  -7.9635600e-01
  -7.7148400e-01
  -7.8613300e-01
  -8.1253100e-01
  -7.9925500e-01
  -8.1268300e-01
  -7.9849200e-01
  -7.8933700e-01
  -7.8048700e-01
  -7.6919600e-01
  -7.4707000e-01
  -8.1741300e-01
  -8.3358800e-01
  -8.5647600e-01
  -8.5815400e-01
  -8.2016000e-01
  -7.9467800e-01
  -7.8353900e-01
  -8.2489000e-01
  -8.3160400e-01
  -8.4671000e-01
  -8.2107500e-01
  -8.2840000e-01
  -7.7606200e-01
  -7.9193100e-01
  -8.1878700e-01
  -8.4457400e-01
  -8.3679200e-01
  -8.1832900e-01
  -8.2244900e-01
  -8.2016000e-01
  -8.0947900e-01
  -8.3663900e-01
  -8.4411600e-01
  -8.0413800e-01
  -7.9193100e-01
  -7.8094500e-01
  -8.1863400e-01
  -8.5922200e-01
  -8.6013800e-01
  -7.9086300e-01
  -7.7468900e-01
  -8.0627400e-01
  -8.3572400e-01
  -8.6685200e-01
  -8.2168600e-01
  -7.8414900e-01
  -7.6431300e-01
  -7.9559300e-01
  -8.3923300e-01
  -8.4610000e-01
  -8.0535900e-01
  -7.7865600e-01
  -7.8170800e-01
  -7.9315200e-01
  -8.1192000e-01
  -8.2412700e-01
  -8.2305900e-01
  -7.8369100e-01
  -7.9589800e-01
  -8.6990400e-01
  -8.5357700e-01
  -8.1375100e-01
  -7.8109700e-01
  -7.9422000e-01
  -8.2336400e-01
  -8.6135900e-01
  -8.0520600e-01
  -7.7423100e-01
  -8.2000700e-01
  -8.5250900e-01
  -8.4823600e-01
  -8.0062900e-01
  -7.9437300e-01
  -8.1085200e-01
  -8.7677000e-01
  -8.6883500e-01
  -8.5952800e-01
  -8.4854100e-01
  -8.7463400e-01
  -8.5708600e-01
  -8.5235600e-01
  -8.4808300e-01
  -8.4732100e-01
  -8.8989300e-01
  -8.6227400e-01
  -8.2290600e-01
  -8.1817600e-01
  -8.7005600e-01
  -8.8165300e-01
  -8.5067700e-01
  -8.5510300e-01
  -8.6074800e-01
  -8.8562000e-01
  -7.7743500e-01
  -8.0764800e-01
  -8.7738000e-01
  -8.8272100e-01
  -8.5601800e-01
  -8.6029100e-01
  -9.0454100e-01
  -8.8958700e-01
  -8.0123900e-01
  -8.2611100e-01
  -8.6273200e-01
  -8.4976200e-01
  -8.1237800e-01
  -8.4121700e-01
  -8.8119500e-01
  -8.9233400e-01
  -8.5449200e-01
  -8.6486800e-01
  -8.8729900e-01
  -8.9630100e-01
  -8.8119500e-01
  -8.9141800e-01
  -9.2330900e-01
  -8.8760400e-01
  -9.0026900e-01
  -9.0896600e-01
  -8.3282500e-01
  -8.7310800e-01
  -9.1751100e-01
  -8.6074800e-01
  -8.5571300e-01
  -9.0225200e-01
  -8.8119500e-01
  -8.9309700e-01
  -9.2529300e-01
  -8.9004500e-01
  -8.6257900e-01
  -9.1049200e-01
  -8.6074800e-01
  -8.6853000e-01
  -9.0881300e-01
  -8.9736900e-01
  -9.0820300e-01
  -9.0026900e-01
  -8.7722800e-01
  -9.0591400e-01
  -8.8760400e-01
  -9.2025800e-01
  -8.7646500e-01
  -8.9920000e-01
  -8.7692300e-01
  -9.1980000e-01
  -8.9965800e-01
  -9.1705300e-01
  -8.9584400e-01
  -9.2041000e-01
  -8.8607800e-01
  -9.2926000e-01
  -9.2636100e-01
  -9.0393100e-01
  -9.1064500e-01
  -9.0377800e-01
  -8.9141800e-01
  -8.7081900e-01
  -8.5708600e-01
  -8.9675900e-01
  -8.8806200e-01
  -8.7249800e-01
  -9.0881300e-01
  -9.2330900e-01
  -8.6853000e-01
  -8.9859000e-01
  -8.9202900e-01
  -8.8607800e-01
  -8.8531500e-01
  -8.7326000e-01
  -8.7860100e-01
  -8.8592500e-01
  -8.8501000e-01
  -8.8760400e-01
  -8.9584400e-01
  -9.0133700e-01
  -8.7921100e-01
  -8.9630100e-01
  -9.2697100e-01
  -9.3246500e-01
  -8.9767500e-01
  -8.7173500e-01
  -8.8668800e-01
  -9.0515100e-01
  -8.7921100e-01
  -8.8714600e-01
  -8.9172400e-01
  -8.9981100e-01
  -9.4497700e-01
  -9.3444800e-01
  -9.4345100e-01
  -9.1674800e-01
  -9.2407200e-01
  -9.2620800e-01
  -9.4146700e-01
  -9.5687900e-01
  -9.2605600e-01
  -9.4665500e-01
  -9.4024700e-01
  -9.4696000e-01
  -9.3414300e-01
  -9.2575100e-01
  -9.6450800e-01
  -9.5153800e-01
  -9.0530400e-01
  -9.7351100e-01
  -9.8236100e-01
  -9.2437700e-01
  -9.7534200e-01
  -9.7412100e-01
  -9.4284100e-01
  -9.9655200e-01
  -9.8037700e-01
  -1.0171510e+00
  -1.0058590e+00
  -9.7244300e-01
  -9.6328700e-01
  -9.8098800e-01
  -9.5397900e-01
  -9.9014300e-01
  -9.4879200e-01
  -9.8892200e-01
  -9.7045900e-01
  -9.8159800e-01
  -9.4375600e-01
  -9.9044800e-01
  -1.0061650e+00
  -1.0000610e+00
  -9.6221900e-01
  -1.0127260e+00
  -1.0064700e+00
  -1.0160830e+00
  -9.9655200e-01
  -9.6481300e-01
  -9.8175000e-01
  -9.3078600e-01
  -9.4879200e-01
  -9.6862800e-01
  -9.7122200e-01
  -9.7900400e-01
  -9.6038800e-01
  -9.9456800e-01
  -9.4451900e-01
  -9.6527100e-01
  -1.0069270e+00
  -9.7976700e-01
  -1.0305790e+00
  -9.9838300e-01
  -1.0125730e+00
  -9.9884000e-01
  -9.8587000e-01
  -1.0005190e+00
  -9.7305300e-01
  -9.9548300e-01
  -9.6191400e-01
  -9.8663300e-01
  -9.7656200e-01
  -9.6038800e-01
  -1.0134890e+00
  -9.8190300e-01
  -1.0090640e+00
  -9.5275900e-01
  -9.9639900e-01
  -9.9197400e-01
  -9.7518900e-01
  -9.9655200e-01
  -9.6328700e-01
  -1.0223390e+00
  -9.8632800e-01
  -9.9777200e-01
  -9.8495500e-01
  -1.0221860e+00
  -9.8602300e-01
  -1.0095210e+00
  -9.8953200e-01
  -1.0079960e+00
  -9.7580000e-01
  -1.0096740e+00
  -9.8556500e-01
  -9.9807700e-01
  -1.0203550e+00
  -1.0046390e+00
  -1.0018920e+00
  -9.8648100e-01
  -9.8251300e-01
  -9.7656200e-01
  -9.6969600e-01
  -9.4604500e-01
  -9.5275900e-01
  -9.7595200e-01
  -9.8159800e-01
  -9.9502600e-01
  -9.7778300e-01
  -1.0076900e+00
  -9.9487300e-01
  -9.8403900e-01
  -1.0069270e+00
  -1.0296630e+00
  -1.0188290e+00
  -1.0063170e+00
  -1.0115050e+00
  -9.8678600e-01
  -1.0108950e+00
  -9.7137500e-01
  -1.0456850e+00
  -1.0224910e+00
  -9.8388700e-01
  -9.7991900e-01
  -1.0041810e+00
  -9.9914600e-01
  -1.0270690e+00
  -1.0110470e+00
  -1.0124210e+00
  -1.0447690e+00
  -1.0293580e+00
  -1.0163880e+00
  -9.9151600e-01
  -1.0556030e+00
  -1.0136410e+00
  -1.0409550e+00
  -1.0113530e+00
  -9.8938000e-01
  -1.0119630e+00
  -1.0015870e+00
  -9.9655200e-01
  -1.0212710e+00
  -1.0136410e+00
  -1.0014340e+00
  -1.0357670e+00
  -1.0293580e+00
  -1.0081480e+00
  -9.9487300e-01
  -1.0075380e+00
  -1.0542300e+00
  -1.0374450e+00
  -9.8495500e-01
  -1.0040280e+00
  -1.0018920e+00
  -1.0620120e+00
  -1.0435490e+00
  -1.0147090e+00
  -1.0346980e+00
  -9.9899300e-01
  -1.0418700e+00
  -1.0472110e+00
  -1.0287480e+00
  -1.0385130e+00
  -1.0404970e+00
  -1.0523990e+00
  -1.0372920e+00
  -1.0185240e+00
  -1.0086060e+00
  -9.8953200e-01
  -1.0194400e+00
  -1.0424800e+00
  -1.0458370e+00
  -1.0275270e+00
  -1.0362240e+00
  -1.0287480e+00
  -1.0304260e+00
  -1.0331730e+00
  -1.0679630e+00
  -1.0897830e+00
  -1.0279850e+00
  -1.0322570e+00
  -1.0488890e+00
  -1.0232540e+00
  -1.0244750e+00
  -1.0273740e+00
  -1.0310360e+00
  -1.0466000e+00
  -1.0496520e+00
  -1.0615540e+00
  -1.0804750e+00
  -1.0462950e+00
  -1.0540770e+00
  -1.0479740e+00
  -1.0571290e+00
  -1.0194400e+00
  -1.0243230e+00
  -1.0121150e+00
  -9.9380500e-01
  -9.6725500e-01
  -1.0049440e+00
  -1.0264590e+00
  -1.0232540e+00
  -1.0174560e+00
  -1.0037230e+00
  -1.0368350e+00
  -1.0528560e+00
  -1.0116580e+00
  -1.0301210e+00
  -1.0430910e+00
  -1.0314940e+00
  -1.0224910e+00
  -1.0591130e+00
  -1.0842900e+00
  -1.0879520e+00
  -1.0379030e+00
  -1.0206600e+00
  -1.0044860e+00
  -1.0137940e+00
  -1.0163880e+00
  -1.0151670e+00
  -1.0191350e+00
  -1.0058590e+00
  -1.0353090e+00
  -1.0351560e+00
  -9.9121100e-01
  -1.0020450e+00
  -1.0112000e+00
  -1.0122680e+00
  -1.0298160e+00
  -1.0256960e+00
  -1.0223390e+00
  -1.0119630e+00
  -1.0371400e+00
  -1.0664370e+00
  -1.0316470e+00
  -1.0156250e+00
  -1.0140990e+00
  -1.0325620e+00
  -1.0122680e+00
  -1.0362240e+00
  -1.0417180e+00
  -1.0655210e+00
  -1.0655210e+00
  -1.0568240e+00
  -1.0351560e+00
  -1.0652160e+00
  -1.0684200e+00
  -1.0321040e+00
  -1.0333250e+00
  -1.0505680e+00
  -1.0287480e+00
  -1.0331730e+00
  -1.0078430e+00
  -1.0148620e+00
  -1.0252380e+00
  -1.0459900e+00
  -1.0797120e+00
  -1.0723880e+00
  -1.0360720e+00
  -1.0176090e+00
  -1.0368350e+00
  -1.0363770e+00
  -1.0511780e+00
  -1.0641480e+00
  -1.0597230e+00
  -1.0424800e+00
  -1.0118100e+00
  -9.8785400e-01
  -9.6939100e-01
  -9.6054100e-01
  -9.6817000e-01
  -9.5245400e-01
  -9.4024700e-01
  -9.2086800e-01
  -9.1964700e-01
  -9.1766400e-01
  -8.9050300e-01
  -9.1049200e-01
  -9.1735800e-01
  -9.2315700e-01
  -9.1613800e-01
  -8.8302600e-01
  -8.7753300e-01
  -8.4655800e-01
  -8.3358800e-01
  -8.2412700e-01
  -8.1802400e-01
  -7.7957200e-01
  -7.7133200e-01
  -7.9574600e-01
  -7.8491200e-01
  -7.6385500e-01
  -7.3486300e-01
  -6.9870000e-01
  -7.2341900e-01
  -7.1640000e-01
  -6.9702100e-01
  -6.9213900e-01
  -6.5597500e-01
  -6.5994300e-01
  -6.0684200e-01
  -5.6259200e-01
  -5.9127800e-01
  -5.9219400e-01
  -5.7708700e-01
  -5.7327300e-01
  -5.9906000e-01
  -5.6396500e-01
  -5.5999800e-01
  -5.5267300e-01
  -5.7968100e-01
  -6.1615000e-01
  -6.1386100e-01
  -6.0058600e-01
  -6.1782800e-01
  -6.2225300e-01
  -6.3705400e-01
  -6.4544700e-01
  -6.3171400e-01
  -6.6253700e-01
  -6.9595300e-01
  -6.8786600e-01
  -6.7504900e-01
  -6.6406200e-01
  -6.5383900e-01
  -6.5429700e-01
  -6.6650400e-01
  -6.9366500e-01
  -7.5561500e-01
  -7.2753900e-01
  -7.2540300e-01
  -7.2189300e-01
  -7.4630700e-01
  -7.2280900e-01
  -7.2586100e-01
  -6.9076500e-01
  -6.9229100e-01
  -7.2189300e-01
  -7.2982800e-01
  -7.3745700e-01
  -7.6309200e-01
  -7.9040500e-01
  -8.1726100e-01
  -8.4594700e-01
  -8.3267200e-01
  -8.4442100e-01
  -8.6929300e-01
  -8.8897700e-01
  -9.1796900e-01
  -9.3704200e-01
  -9.4207800e-01
  -9.6756000e-01
  -9.5642100e-01
  -9.9731400e-01
  -1.0000610e+00
  -1.0089110e+00
  -1.0264590e+00
  -1.0664370e+00
  -1.0990910e+00
  -1.0984800e+00
  -1.0877990e+00
  -1.0572810e+00
  -1.0607910e+00
  -1.0842900e+00
  -1.1058040e+00
  -1.0997010e+00
  -1.1094670e+00
  -1.1322020e+00
  -1.1439510e+00
  -1.1570740e+00
  -1.1399840e+00
  -1.1131290e+00
  -1.1077880e+00
  -1.1000060e+00
  -1.1146550e+00
  -1.1257930e+00
  -1.1405940e+00
  -1.1624150e+00
  -1.2013240e+00
  -1.1891170e+00
  -1.1296080e+00
  -1.1216740e+00
  -1.1206050e+00
  -1.0781860e+00
  -1.0749820e+00
  -1.0917660e+00
  -1.0929870e+00
  -1.0833740e+00
  -1.0972600e+00
  -1.1296080e+00
  -1.1401370e+00
  -1.1260990e+00
  -1.1123660e+00
  -1.1604310e+00
  -1.1741640e+00
  -1.1567690e+00
  -1.1306760e+00
  -1.0908510e+00
  -1.0939030e+00
  -1.1199950e+00
  -1.1285400e+00
  -1.1059570e+00
  -1.1059570e+00
  -1.0765080e+00
  -1.1154170e+00
  -1.1047360e+00
  -1.0676570e+00
  -1.1163330e+00
  -1.0824580e+00
  -1.1192320e+00
  -1.1495970e+00
  -1.1054990e+00
  -1.0644530e+00
  -1.0487370e+00
  -1.0235600e+00
  -1.0166930e+00
  -1.0028080e+00
  -9.7961400e-01
  -9.6542400e-01
  -9.0850800e-01
  -8.4686300e-01
  -7.8186000e-01
  -6.9046000e-01
  -6.5246600e-01
  -6.5185500e-01
  -6.5307600e-01
  -6.0806300e-01
  -5.3772000e-01
  -4.9087500e-01
  -3.6254900e-01
  -2.5756800e-01
  -2.0263700e-01
  -6.7139000e-02
   1.0437000e-01
   3.4759500e-01
   4.2312600e-01
   6.8176300e-01
   8.8226300e-01
   1.0823060e+00
   1.2664790e+00
   1.4843750e+00
   1.6714480e+00
   1.8090820e+00
   1.9863890e+00
